,0,1,2,3,4,5,6,7,8,9,10,11,12,13,14,15,16,17,18,19,20,21,22,23,24,25,26,27,28,29,30,31,32,33,34,35,36,37,38,39,40,41,42,43,44,45,46,47,48,49,50,51,52,53,54,55,56,57,58,59,60,61,62,63,64,65,66,67,68,69,70,71,72,73,74,75,76,77,78,79,80,81,82,83,84,85,86,87,88,89,90,91,92,93,94,95,96,97,98,99,100,101,102,103,104,105,106,107,108,109,110,111,112,113,114,115,116,117,118,119,120,121,122,123,124,125,126,127,128,129,130,131,132,133,134,135,136,137,138,139,140,141,142,143,144,145,146,147,148,149,150,151,152,153,154,155,156,157,158,159,160,161,162,163,164,165,166,167,168,169,170,171,172,173,174,175,176,177,178,179,180,181,182,183,184,185,186,187,188,189,190,191,192,193,194,195,196,197,198,199,200,201,202,203,204,205,206,207,208,209,210,211,212,213,214,215,216,217,218,219,220,221,222,223,224,225,226,227,228,229,230,231,232,233,234,235,236,237,238,239,240,241,242,243,244,245,246,247,248,249,250,251,252,253,254,Target
0,0.0755768488600066,0.1030423982598571,0.1329418834284275,0.1642613953835883,0.1960071334565407,0.2259168172716426,0.2552672075017685,0.2792707667093628,0.3016996059267027,0.3232457058957556,0.3451603927136542,0.364764118407576,0.3798859627024571,0.3949625613384029,0.4197052281604947,0.4554006995681094,0.4934240151706286,0.5348754985671638,0.5730678661105952,0.6149492148886746,0.6596292025635115,0.6984411425168264,0.7396450863523705,0.784465610913643,0.8291302200462323,0.8675876545548837,0.9091633552532336,0.9525579694994072,0.9765657442470256,0.9596084416052066,0.9208986658754515,0.8810468137971299,0.836271833023748,0.791424655674702,0.7465775600323015,0.7020588405330213,0.6642412614466722,0.6218883614361248,0.5770474156743062,0.5322008333389243,0.4881819820439368,0.4543570551727456,0.4289379859408468,0.4301865716489403,0.4379346156589603,0.44560530544166,0.447259387413194,0.4431268612725638,0.4280208183574272,0.4121965703384163,0.3982706340196806,0.3956184374322546,0.4114839172403568,0.4248125698961029,0.4223813294324474,0.4177913488632854,0.4222653813279082,0.42770432978979,0.4344989009253932,0.4433279660982199,0.4472445181711775,0.4472805125364596,0.4469934481156017,0.4385804587830917,0.4195701596305068,0.3960334948223853,0.3670308510839419,0.3366476254349935,0.3033343249085347,0.268934128460063,0.229125046436373,0.1948959205509599,0.1591764996160893,0.1233554670298664,0.0917034417064528,0.0621782879380767,0.0501995639280488,0.0699844410709327,0.0994492749606774,0.134457992350323,0.164641835968627,0.1944738396423351,0.2219697398812783,0.2507765896563037,0.2756816143951373,0.2989311889496979,0.3250599933313256,0.3440890298866386,0.3635385537047737,0.375726148782376,0.3922068875536926,0.4188041835305316,0.4497922127900606,0.4857387466484222,0.5269093272266718,0.564017006630346,0.6077845250636471,0.6524270250092492,0.6907518200982332,0.7324808628415265,0.7773132593536591,0.8218669574373225,0.8598983321362905,0.9020079002937218,0.9462457711878324,0.9794945618874268,0.9818458238655408,0.9502735195242368,0.9079823057539074,0.8631414780733857,0.8182943007243397,0.7734471233752933,0.7285999460262478,0.683752768677202,0.6389055913281556,0.5940584139791099,0.5492124355771073,0.505367533230922,0.4683298441614458,0.4316845757192225,0.4126463746156317,0.4228549443357285,0.4289680799974584,0.4369613027976415,0.4443872637302379,0.4384392301845004,0.4197026229784697,0.4049530092757598,0.3934452386380247,0.3836400983572554,0.3945249418181702,0.4061612891556294,0.401302512295157,0.4051495088001136,0.4088425710466576,0.4165719584974048,0.4180958291993928,0.4252358089160237,0.427552965339715,0.426456063694792,0.4179705954667876,0.4061905822770917,0.3859579283412402,0.3615416642998832,0.3326327038147509,0.3035836690221629,0.2678876663144223,0.2290295475996939,0.1929996538126224,0.1570973018221202,0.1231099393943935,0.0873332460771534,0.0534741547375652,0.0205391702344615,0.0,0.0181892927674061,0.0505928429622828,0.079274839779974,0.1104565355962732,0.1407984673235609,0.1706969791089942,0.2003935276837825,0.2274588618609989,0.2543785524060036,0.2832830062492195,0.307587093177019,0.3300206766834594,0.352755614730869,0.3790347277181016,0.3993573545631652,0.4197373273124896,0.4441626786777339,0.4757280448109511,0.512363230987253,0.5526535897580198,0.5918540316708967,0.6341882066681972,0.6719377246432077,0.7164217102952526,0.7612198346026731,0.8013864781879072,0.841179450306446,0.8859511646860214,0.9298930643501896,0.96688364946536,1.0000000000000002,0.9935940989613156,0.9535823598656494,0.9087618826180984,0.8639681883468151,0.8235217436498228,0.7839835646052256,0.739231819966748,0.6943846426177025,0.6495375179240495,0.6049802483254612,0.5669270994488904,0.5248454194312413,0.4802692282529162,0.4484817365662166,0.4371582147265433,0.4521592072019733,0.4599770486259484,0.4667974211570656,0.471829577068368,0.4681922621438201,0.4477001033696046,0.4317952288640574,0.4184438442748235,0.4049556295148706,0.4164810911465206,0.4341428867911894,0.4374076910839541,0.4374219148156013,0.4374378765611444,0.4402547236595253,0.4410181907554158,0.4467925007716997,0.4554367429113151,0.4571343201085007,0.4554108619974903,0.4467439034721909,0.4365110775437768,0.4215412008874186,0.3923107202063711,0.3618152865249986,0.3316913722724526,0.2985088567331588,0.2626790075969742,0.2289228513517818,0.1960173442175439,0.1625124373425623,0.125624282366934,0.0919524249284184,0.0600143187726647,0.0430201832077767,0.0617943367562561,0.0903864757819097,0.1243886411288126,0.1575561089217489,0.1886595073703609,0.215997154847211,0.2353697691358254,0.245042368572105,0.2688149629310943,0.2737064028893661,0.2773659632835741,0.2892386646539768,0.2897282143012936,0.2990454976428092,0.3207421328538309,0.3430613090272418,0.3620789334235907,0.3795954155357766,0.391298939104503,No
1,0.685263004994433,0.6769842565965944,0.6714745786072407,0.6761944890150751,0.6918451241324812,0.7014341105938384,0.7090144039150745,0.7199714429554147,0.7300574615457212,0.7310005568933291,0.7306569149916102,0.7178370242474332,0.6972252652739708,0.6876698453170487,0.6951250409651748,0.7246315432137993,0.7478555018576936,0.7581210315753029,0.7648665056997528,0.7355019477234221,0.6873067095438679,0.6376237816283163,0.582931738653782,0.5300421981909305,0.4779493687595799,0.4225961881273998,0.3727492545072572,0.3148592260091212,0.2568313756995679,0.2067341139286547,0.1516415873047214,0.0932844107272108,0.0367231415506992,0.0,0.0227181806247216,0.0721345846450209,0.1266987707070344,0.1850561848913832,0.2432673957416005,0.2946291495678557,0.3483006258986663,0.4066335827180154,0.4649005093134633,0.5172160619049373,0.5699104414533822,0.6282109774416136,0.6865870930490787,0.744413660307008,0.7939944499697371,0.849796222819982,0.9081646838846656,0.9663127735832048,1.0,0.957404864548939,0.9083323345780476,0.8537501533621601,0.8052243351672144,0.7592553335404681,0.7239119389102324,0.6960561630835476,0.6784161941681817,0.6641164837984055,0.6374667427652847,0.6082844549116535,0.578982679785804,0.5450946202742617,0.5085137900550749,0.4715656985900052,0.4346649100163895,0.3915821930100127,0.3479528283746873,0.3077310309359289,0.2688449788501383,0.2323562527314402,0.1986161513385895,0.1865772362308237,0.2101856090725598,0.2467363755391403,0.290147020499198,0.335272161317566,0.3819441130702163,0.4291950684120218,0.477121548894581,0.5219984421045971,0.5676934588998723,0.6093946200172187,0.6518670863172065,0.6795332784590724,0.6909986247857034,0.6835871666999669,0.6779273556272014,0.6664392317580292,0.6595847543227886,0.6610951588493332,0.6757375007246407,0.690670842518947,0.702311007422904,0.7116175011709718,0.7192612654042239,0.7276176089860442,0.73038774329877,0.71836461001541,0.6983900781743473,0.6890459285465587,0.6963333258179993,0.722136702491369,0.746004812089816,0.7546425572652016,0.7488655243988465,0.7076561901689624,0.6583452962627794,0.6090713993777421,0.5538191635551686,0.5039006632355107,0.4485786508327234,0.3902152450470086,0.3321063155559096,0.2813904904998756,0.2269864212125045,0.1686475763365904,0.1132244219013713,0.074970382341535,0.078521636591387,0.1245626711241867,0.1824931481655165,0.2363106768405845,0.2875534261765373,0.3457313728954101,0.404085300830505,0.4588208495762209,0.5092388478653449,0.5673087676190072,0.6256767146231257,0.6812470924923046,0.7310209264492089,0.7888863088057922,0.8472129957785222,0.892367094249479,0.8603802199896093,0.8071165989548565,0.7606834277304664,0.7239334781546654,0.7033714488606342,0.6848513249529333,0.6642274080968043,0.6407482298544835,0.6134782352141093,0.5880639029896029,0.5586133331990222,0.5189045550928217,0.4769053002622399,0.4347916541815562,0.3928626549232314,0.351713352645929,0.3098942692344666,0.2672820855488524,0.2245134217559021,0.184786306136786,0.1405749026733185,0.1144021211636203,0.1221828829694633,0.155752778180686,0.1986513868624795,0.243472638167856,0.292365438418904,0.3414343692601373,0.3920651971767579,0.4443959573992944,0.4933669819898174,0.5379592741945132,0.5820746804481036,0.6275221454841848,0.6659772613018649,0.6960490457387847,0.7131609384571398,0.7113368955509922,0.7015638232482728,0.6856527134456047,0.6748895197232969,0.6809750677414423,0.6834445847562349,0.6908634134527873,0.7053008798075218,0.7185600558449101,0.7293176262530516,0.7348210667802646,0.7444788644288329,0.751305855977562,0.7386816978082003,0.7215194590338645,0.7142642166371598,0.7330812962642423,0.7563771197596791,0.7762030377212596,0.7888309348747051,0.7860969150075512,0.7521582378559875,0.70343920861573,0.6523447061128762,0.6029830137650707,0.5453572243466498,0.4927989300143256,0.4403509053721275,0.3820762400477542,0.3237014460029705,0.2666465586382038,0.2175485945777515,0.1605017021357486,0.1048257113222828,0.0838294893366016,0.1196545938384823,0.1686880861363677,0.2264481276211649,0.2827593547134281,0.3320973272450633,0.3896542794148323,0.4480283983176596,0.5049862894077466,0.5540400169204627,0.6112325124859692,0.6696075719132013,0.72759755067535,0.7778627105142872,0.8328240758931011,0.8911845371761538,0.9479920521479775,0.9564919532465286,0.9101312488345772,0.8552688489370222,0.8056576000154334,0.7620738067405264,0.7302443275796962,0.708679453230125,0.6869884716354648,0.6674688309692165,0.6432688196005527,0.6103118405042602,0.5784053026377265,0.5420912131449651,0.5037040490288687,0.4659158024218952,0.4260168960171746,0.3812514939157321,0.3329097578919457,0.2889916153005842,0.2452474866195844,0.2039636117725602,0.1618783077607848,0.1228353666182153,0.0886924449422466,0.0805671102440714,0.1080008328275898,0.1493020570001095,0.1954585128466079,0.2413122790740978,No
2,0.1047880078470916,0.1170349376666203,0.1426494534216261,0.1671460182512084,0.1721450482248049,0.1504937093211916,0.1221823569647719,0.1051863662762335,0.1013973451679695,0.1133871958367493,0.1315381320589341,0.1210776506636016,0.0969590725323649,0.071675568092652,0.0455377122368252,0.0301265653377277,0.0320528048978223,0.0516803654165136,0.0791765907112438,0.1095529468357526,0.1388039970307417,0.1677756279203061,0.1944074315623617,0.2205738021494135,0.2427815451772786,0.258449659763761,0.2668335830946532,0.269400003363811,0.2730643975888708,0.2813041867754416,0.2853264462397403,0.2872819623254775,0.290323138088676,0.2914608317988639,0.2913650149951144,0.2852679947906064,0.2680479384282294,0.2505163942148726,0.2475509219510788,0.2686973169926409,0.2957705849435569,0.3149572788191296,0.308122880840786,0.2975138603579835,0.2916926639986935,0.2878869270499739,0.2838229208189015,0.2796094687302387,0.2799244365175558,0.2589383327836884,0.228546217369807,0.2104636764171131,0.2282427349033021,0.2622772000921746,0.2938584031668784,0.3300864210521638,0.3665844366767828,0.4021646106300528,0.4333069251225477,0.4691454899110797,0.5055038267141375,0.5353990296478445,0.5646786438193409,0.5932615728835048,0.6212597186672383,0.6535470742754695,0.6899399428605336,0.7264397303079423,0.762939492691053,0.7992817866702749,0.8313141631016546,0.8655144630968777,0.9019979920795956,0.9384469661558812,0.9715486537458836,1.0,0.9878084519586032,0.9518075211636886,0.915467364268249,0.8833554025095344,0.8492782703616718,0.8175408559123599,0.7897214208213233,0.753634742487752,0.7185202612055551,0.6871740576020132,0.6510719047869541,0.6145723728069387,0.5780725853595295,0.5415727979121207,0.5050730686785664,0.4688038449908051,0.4370554963508891,0.4025062421228728,0.367202953433937,0.3421576797601654,0.3162052496993707,0.2850587461174124,0.2562477372269537,0.2327078467138236,0.2147725181873822,0.204084776077588,0.1974142264396784,0.1833464321401655,0.1630389965307895,0.1414745509586499,0.1142014826469494,0.089612482610995,0.0652790697642948,0.040946397428576,0.0171674951887496,0.0,0.0003922476242629,0.0212077352690599,0.0468572080852159,0.0742969871040892,0.1032618531871665,0.1324430814587401,0.1609361702883919,0.1870838506133708,0.2128766710740078,0.2333175362108078,0.241055017060494,0.2432961965773502,0.2490168101482327,0.2527274581936288,0.2550572093801749,0.255265877384378,0.2501817803991554,0.2496168945377962,0.2430031911199771,0.224655614038738,0.2079616030694363,0.1970634554049687,0.2112647603040417,0.2381692104696317,0.2634277280368261,0.2721914905010899,0.2580425481333931,0.2502351982797594,0.2496509577113667,0.2452159502294614,0.2428895783981891,0.2408343830385076,0.2241372963239482,0.1946087107363737,0.1707279748727866,0.1795104396742534,0.2125966100330235,0.2474720116565022,0.2789563973690981,0.315143576071942,0.3516432551768998,0.3881427446367137,0.4242126331767309,0.4555010667161628,0.4907052221647024,0.5272015169485526,0.5637012615295768,0.5999647357198449,0.6317527232384349,0.6662701288437746,0.7027597787202059,0.7392595661676146,0.775726455299311,0.8093751589481833,0.8416911967296065,0.8705399123413934,0.9002439033830792,0.9082684902233964,0.8777185651333502,0.8452951957914548,0.8089112737100651,0.7724114983905429,0.7359120016104371,0.6998865825780173,0.6685798937896651,0.6333499971340292,0.59685323661889,0.5603689731289264,0.5261306204604898,0.4941292685680657,0.4578382206618406,0.4245113326726694,0.3916650880094464,0.3567372905450371,0.3253638308709857,0.29245533094173,0.26217545270649,0.2385209656023207,0.2206572631851134,0.2096569913048435,0.2075087191754986,0.1982481627351072,0.176279902848829,0.1549540676260522,0.1310925260765804,0.1067881591112658,0.0844846105321259,0.063593326324126,0.0502804125000211,0.0591123366522698,0.0815298831684209,0.1078308280759128,0.1367367566366559,0.1657791776115343,0.1933255774338628,0.2220089030596953,0.2513570651593498,0.2735961836515325,0.287634854690571,0.2914179834527909,0.2914635161417181,0.2914635161417204,0.29145990800376,0.2901463761074266,0.2849465762122735,0.2845206190287715,0.2832926849360159,0.2713914390048718,0.2528284215708175,0.2349321557973916,0.2246383410770477,0.2395747430274907,0.2705649928474286,0.2921324932022512,0.2908474376139752,0.2843499306897682,0.2784905293099881,0.2771192633745206,0.2719356349020893,0.2705471355323053,0.2643368310804729,0.2405627815022398,0.2104942464740641,0.202296522201968,0.2263298213896035,0.2614181400020522,0.2979123582333888,0.3334342065749608,0.3645895193318794,0.400473545554285,0.4369727358985417,0.4734725225374226,0.5098928692082115,0.5427028447689967,0.5760721901307065,0.6125309976701928,0.6490297328168532,0.6847784029816973,0.7159384249126844,0.7515904521424034,0.7880892594418475,0.8245863195824098,0.8585214138872809,No
3,0.2043917115340869,0.2357420928533791,0.2669760759976707,0.3085791460275544,0.3511050642638988,0.377051808118386,0.4018472708059801,0.378150574532001,0.3398480131567578,0.3558360463146846,0.4143322319900997,0.4744652997610818,0.53254358796672,0.5851888738251436,0.6447015177038566,0.704842849051089,0.7648418529534182,0.819356217572188,0.8750914832828427,0.9311158333495244,0.9605485645407784,0.9182999861665312,0.8658957466207589,0.8065823159090049,0.7489346819323102,0.6962876562681979,0.6432709913479342,0.5917036711109485,0.5440602898851672,0.5027141053564812,0.4763285305572429,0.4603940637826009,0.4323558400758782,0.4190718732192877,0.404832857981114,0.4045704516574278,0.3845317645580044,0.3499912202678761,0.3053937395648263,0.2663701239778326,0.231002869964092,0.216292163043952,0.2346215299426168,0.2769105071104671,0.3175069161057842,0.3600438055580375,0.4002049172980315,0.4438866660086404,0.4804903964547693,0.5177316170740491,0.5270042448074295,0.5187477846463608,0.5080842769395051,0.5052061644240113,0.5191335879692285,0.5323179888890239,0.5404331128350379,0.5476381038860219,0.550061641690522,0.5351703585855698,0.5217662468488096,0.5317412008756603,0.5543945835261412,0.5662802924866419,0.5602909512795837,0.5428452765869991,0.4976778752407937,0.4442603615136251,0.3891058021447329,0.3342391411096335,0.2751148855667376,0.2226635090549991,0.1641243280378694,0.1042747771466052,0.0509855618861252,0.0083605384305678,0.0239188142703863,0.0792597343282102,0.1327361488713847,0.1896633617193026,0.2497817480119646,0.3099233908909606,0.3700600371005345,0.4284309355877316,0.4809118193435684,0.5402937483121215,0.6004347176967477,0.6605763605757435,0.7206120126763214,0.7756473869217946,0.8308892399215722,0.8909460445025348,0.9510499383254204,1.0000000000000002,0.971775195788321,0.9172288094380908,0.862528492015177,0.8098097421539907,0.7551471051131249,0.7021435063917238,0.6495227939268793,0.5986044088623075,0.5551767658024909,0.5138142168161082,0.4814743608789624,0.4587934277761867,0.4362247910923607,0.4031135224447093,0.3670056510068957,0.3241311253260186,0.2818582910934804,0.2393539019882296,0.1993670545596437,0.1679546740056297,0.159963105530996,0.1865497416109083,0.226047521434374,0.2674529036493933,0.3129715651344054,0.3570213933133468,0.3998625221188943,0.4477127529250893,0.483656391266736,0.4985567397508004,0.4867215887020149,0.4741383893866415,0.4736736244585815,0.483696645284164,0.5026707977632936,0.511952379884568,0.5191216211131973,0.51471498053493,0.5190227687186504,0.5074246161048566,0.4949784470526082,0.510620275742929,0.5342519776958436,0.5564658509030007,0.5608193828125776,0.5556403484828465,0.518538336419726,0.4642750873439829,0.4107492553190797,0.358355153152293,0.3001598764502355,0.2405711435880186,0.1877424144518682,0.1299279231305548,0.0698561205451442,0.0156224720887057,0.0020451992698422,0.0448024096877404,0.1035333236551299,0.1608325938016468,0.2140180182000455,0.2737745376930005,0.3339160675714978,0.3940555336339046,0.4529836716840243,0.5053671815343386,0.564287480681007,0.6244226833134605,0.6821378735466406,0.7227838327023455,0.7744235089664739,0.8340829161945591,0.8875449925381578,0.942750738249013,0.9526374940946372,0.9031135164297652,0.8473144839879632,0.7927178955569123,0.7384183301147877,0.6862122742752987,0.6322098164531889,0.5806260456362926,0.5338232778410719,0.4909444483507856,0.4601798840754678,0.4309674802391028,0.4035630610257217,0.3704152683556825,0.3343551224800591,0.2977273775425919,0.2557191688584772,0.2148955004822774,0.1733107416087094,0.1360661841965671,0.1165520954966445,0.1332947047316666,0.1685491901062035,0.2104741812897632,0.2626677694162569,0.3072218934560338,0.3516698704421344,0.3945505123820605,0.4343100912950266,0.46624056046071,0.4820176308675012,0.4777580670137931,0.4736442221149775,0.4777910898938238,0.4896299535242006,0.5027987124650566,0.5038543662172899,0.5094162951323853,0.5184740187905994,0.5079796866919666,0.5021560678249184,0.5182210844946051,0.5442469368865441,0.567617463891583,0.5718499424311176,0.5722382261139201,0.5337243367450792,0.479215161650083,0.4257636577037538,0.3703573304569791,0.3157831335211474,0.2558211890323925,0.1996293741716688,0.1455099728168662,0.0855803566156607,0.0296498897773145,0.0,0.0299148238973976,0.0877971446312078,0.1476937597336081,0.2015448637037773,0.2580495369088866,0.3181608765514192,0.3783025194304161,0.4384441623094122,0.4985828371395582,0.5572945312546129,0.609715810377373,0.6688151659398038,0.7289481410574223,0.7870801656654187,0.8396870376293328,0.8978945569485914,0.921615910810384,0.8802319554622786,0.82623358827394,0.7731471231629243,0.7206596347178464,0.6657147654497766,0.6139496787358669,0.5624939987292885,0.5170033331455153,0.4921070847848381,0.4714187384093957,0.4426787357305599,0.4114865899162268,0.3806404821572005,No
4,0.4569837772862706,0.4761196740378453,0.5254154495839556,0.5707644811994674,0.5696487396832737,0.5038785656399418,0.4342830743260366,0.3646967573733035,0.2985548388576786,0.2395402140917262,0.1825543683993551,0.1798564848795389,0.2318034132881612,0.2902092205819002,0.3588735805161602,0.424294846980124,0.4592979727411532,0.4916228852090509,0.5504296705928908,0.6196476063556737,0.6804706225852657,0.7440477278919526,0.7969553058873244,0.8549309399193783,0.9243558487118886,0.9866494195173416,0.974629112899042,0.9380805667404744,0.9092844155512324,0.888920183343175,0.870718762795387,0.845324931905707,0.8191123728962579,0.7851730535907624,0.7502688698067965,0.7100737652033677,0.6640840401947399,0.6197732781703214,0.5668850759303412,0.5297361346447076,0.5165267798881201,0.5388816242321957,0.5765502015586952,0.6347788510383299,0.6819743754518943,0.7280710554917236,0.776676304491815,0.8203892150804584,0.8585814356968067,0.8753974754684544,0.8704948259725329,0.8505766370032672,0.8541279128605477,0.8524276036940588,0.8616762402165818,0.865607964103956,0.8843181971295646,0.8907047023225525,0.8779556459984343,0.8523611703823524,0.8685444983834918,0.8937343526492163,0.9161977359666732,0.9232217910889062,0.9127572933598054,0.8735274264207371,0.8184595688604932,0.7563027843238221,0.6955584042278198,0.6314376791396357,0.5618984744283724,0.4967378143133554,0.4367761853871001,0.3675848808416102,0.2984490163972135,0.2390082043810202,0.1732714710461811,0.1044608029385041,0.0458091744062032,0.0,0.02610751084296,0.0921006025139483,0.1616896797648523,0.2303462768131778,0.2889564626953558,0.3559900565669522,0.4255833043454184,0.4951814641910377,0.564779624036658,0.634377783882278,0.7039759437278974,0.7735732954352605,0.8419753613268202,0.8871931864929423,0.8686892492267293,0.8412286076717432,0.8227379888882753,0.8082501600872409,0.7907724793785582,0.7666991039452093,0.7339505666705479,0.6930811877058827,0.6550738152709372,0.6115718517279509,0.564317694956364,0.5169329246700083,0.4705965538531411,0.4293895709020234,0.4051128447496539,0.4194838065730579,0.4658197250094757,0.5131745068811071,0.5634840851479486,0.6207358603847415,0.672261020029481,0.7264503630079853,0.7726607442549582,0.8023977969118081,0.8184828249145184,0.8251893151915155,0.8277541910118553,0.8329778978257996,0.8330484221472405,0.8375349347507193,0.8538553722604867,0.8667871548516941,0.8567412231558267,0.840992065628829,0.8401669170667265,0.8703687355678285,0.8856773483073641,0.902401331860916,0.9142021913170866,0.8796209459941382,0.8227736283084419,0.7641450816392394,0.6975303277376272,0.6390256126120533,0.5711943257095355,0.5120669176534127,0.4458711683051251,0.3765848863125687,0.3162143436717359,0.2515548688374742,0.1821192627373093,0.1206383724660677,0.0768211245826089,0.0893898729672462,0.1446065694578355,0.2138889014817366,0.2834870613273574,0.3530852211729769,0.4226833810185975,0.4922815408642167,0.5618797007098357,0.6314778605554565,0.7009323455141097,0.7628548500764643,0.8258490630576212,0.8937391872890514,0.9103597791661668,0.8722500293561595,0.8523708225180555,0.8383867687180135,0.8245974226749841,0.8124616620137886,0.783810379788282,0.7518121588857802,0.7121747483650411,0.665838347670813,0.6218122658686918,0.5814577123245352,0.5382854561932731,0.5095462736303471,0.5084518244504728,0.5412967184657833,0.5855702682928388,0.6327322758377925,0.6849880589159261,0.7389159869928101,0.7862072577198931,0.8393409149866229,0.8806871963481675,0.9031740474305718,0.9062213007544796,0.9121032095807192,0.9088649419296448,0.9219191231597904,0.9374262277753612,0.9416886377273856,0.9590532829810744,0.968151166260918,0.9498399414567992,0.9384820169092049,0.9621061687197834,0.9892247152022238,1.0,0.994793628164378,0.9749752188608564,0.9221884659751828,0.8645200079835558,0.8012265733500312,0.7412681347118446,0.672076830166354,0.6029409657219587,0.5435001537057644,0.4777631793793473,0.4081837643841701,0.3385856045385491,0.268992356760084,0.2019619685868185,0.1469543642903044,0.1297707172176929,0.1743070901153038,0.2428866361032762,0.3109140536733832,0.3692095302770404,0.4371847594703824,0.5067811574987964,0.5763793173444185,0.6459774771900406,0.7155756370356565,0.7851479065090721,0.8503461310894092,0.910227477907026,0.9781929516636216,0.9945989214868144,0.946825844195328,0.9119622593405738,0.8940138311360344,0.8800369274338875,0.861632919329121,0.8316738918250524,0.808475660231315,0.7702338594088016,0.7302415875416757,0.6921498296003779,0.645924343376286,0.5955871518002875,0.5498065582512175,0.5139357311480137,0.5097935592496037,0.5375188461768214,0.5774206020847865,0.6328560554751346,0.6871988775352511,0.7353839380195271,0.7817912037233565,0.8278510017833507,0.8608691311693386,0.8752066712385869,0.8764433226495383,0.8698456672967034,0.8643773480560593,0.8706789818996157,No
5,0.2205770407094087,0.1908729069122937,0.156494281412824,0.1233656367316392,0.087793259512773,0.0552972527555448,0.0287162546364915,0.0308160597265132,0.0611878472149843,0.0941623537918631,0.1261196476869038,0.159509346690585,0.1923817647762866,0.2217153700996095,0.2475123981576534,0.2690231152824678,0.2915300564177634,0.3189853108660607,0.3507798564967714,0.3866380911454878,0.424180112693812,0.4626777899193803,0.5018123248458848,0.5416931820454434,0.5797188891187073,0.6217351663720667,0.6616384245610147,0.6996884133448382,0.741731867482412,0.7830518884174806,0.820221607649573,0.8617096958347934,0.9030113519225836,0.9401809591272868,0.9800564451391616,1.0,0.973705641547042,0.9359403148558744,0.8939342542468871,0.8531254455869282,0.8157419212566177,0.7740080643564351,0.7349337370752111,0.6961090160256995,0.6539952135397684,0.6140441683858542,0.5760265729929372,0.5339985018211395,0.4917888495422284,0.4495791793077865,0.4074304060000377,0.3684564245225279,0.3313061341319121,0.3255481251410834,0.3566357812136094,0.374555920741866,0.380079815419112,0.3711979995918635,0.3511359731598487,0.3359224798683624,0.3378774685670735,0.3472339587675292,0.3469623280004188,0.3395497644088694,0.33104907072498,0.3199204822537649,0.3089731807138773,0.3034045463256787,0.3096315036542238,0.3145374434574617,0.3067686109984269,0.2840399350853382,0.2562889380434723,0.2257747992581846,0.194129591471892,0.1624424832556585,0.1295998097778135,0.0958485774021241,0.0616407970003441,0.0275204001655052,0.0,0.0079003453982103,0.0387007838318518,0.0704144837170239,0.1041745019677177,0.1374510240602026,0.1710010293569717,0.1985825447704862,0.2228412626554932,0.2442104766031616,0.2672120763699928,0.2957974435446737,0.3280351070895628,0.3631937731101353,0.400830738995434,0.4382654459884592,0.4787189400690468,0.5181662135055114,0.5566259882210267,0.5986847996574101,0.6381083223242237,0.676599197712507,0.718660494018202,0.7580504311429352,0.7965724072039879,0.8386742618005105,0.8802018067065474,0.9174026813719722,0.9585412574404312,0.9940648910839732,0.9934901087392878,0.95890273233768,0.91852127361623,0.8810433706269478,0.8393618347071035,0.8013147081026135,0.761408037075145,0.7192889346916196,0.6804248512301132,0.6413933171110389,0.5992435044837996,0.557033834249357,0.5148241640149147,0.4726901881995202,0.4338883060835503,0.3947942534221538,0.3537691093732904,0.3227494662313908,0.3174069894182967,0.3471420439207515,0.3631889704601576,0.3672726184350696,0.3563333431931204,0.3367082501970591,0.3252853294202174,0.3273644154086261,0.3376754136648487,0.3412630522117856,0.334827977797659,0.3241722712042096,0.3195120565158056,0.3110036690771398,0.3101963065477531,0.3193023510069779,0.3205019163929694,0.3067819317261326,0.2820592931299193,0.2505601868623748,0.2197074876017373,0.1879539938371337,0.1547001834861767,0.1214777553945667,0.0885921585273469,0.0565168000023563,0.0261312102033186,0.0138558988403578,0.0413892094758066,0.0731027534220613,0.1060121078205639,0.1380146021313717,0.1696458468589412,0.1998728658155651,0.2288589699311547,0.2526056710708704,0.273736356124842,0.2952973851329723,0.3236564570613653,0.361686057951222,0.3988282251657131,0.4390666260304423,0.4762726566874979,0.5174103844992877,0.5547202343288682,0.5956243247386808,0.6354584033765664,0.6735664098691576,0.7155951267772103,0.7554036458921376,0.7935396193606379,0.8355968108468137,0.8777708140463094,0.9172391261688152,0.9556102793975374,0.9923843710403272,0.9983936443546968,0.9674761305454378,0.927026286392963,0.8895289430661515,0.8489238759604558,0.8079616346377174,0.7706717758989157,0.7289503638012964,0.6867411768979632,0.6445315066635215,0.6023218364290801,0.5601121661946369,0.5179024959601952,0.4757097497159916,0.4355739262849236,0.3977133922774041,0.3557160912766812,0.3136718467566612,0.2884069024009772,0.3162357188867926,0.3508046598994192,0.3726529189426106,0.3789208094144045,0.372799609083571,0.3580419236251593,0.3449354993767393,0.3443762010987856,0.3577497433512109,0.3592384416451832,0.3582900791219261,0.3541493458488056,0.3486110301840268,0.3405646967493296,0.3298934114451657,0.3265654783042404,0.3329256766575355,0.3408403750333171,0.3336626601342098,0.310873373718562,0.2833424500650918,0.2533508968262261,0.2218542112971833,0.1901165391959851,0.1571735019437125,0.124508783169097,0.0916224972728932,0.0564554888427653,0.0312610121671445,0.0433619152426432,0.0741752928664141,0.1063298926666492,0.1371219007295424,0.162700093244374,0.1906700888725363,0.2131881899901366,0.2066864684838597,0.1770204069997738,0.1573419303927504,0.1825328116788278,0.2143006489136302,0.2396389197983981,0.2620230193103219,0.2850930302655161,0.3086772910179773,0.3394910662653738,0.3726670708110589,0.4105973347097107,0.4488159024433293,0.4876853362565507,0.5265717432126671,0.5652402832116838,No
6,0.3212613017704304,0.3425857741636782,0.3765180298953274,0.4095079688604011,0.399052267465368,0.3535523072882616,0.3098080727991104,0.2620713407767547,0.2189052333615576,0.1708497983296832,0.1264610219556248,0.0803260580452654,0.0345567024559407,0.0,0.0115073322205548,0.0556689095718493,0.1047062810372227,0.1537899512102714,0.2024902991003422,0.2460633190310801,0.2931527620379688,0.330081126596546,0.3232472669524711,0.3325610066011282,0.3620730273196724,0.394247525195031,0.4160782234390416,0.4000487056315471,0.36302217176106,0.3379227857901181,0.3544581514133627,0.3962769523057339,0.4389506287783729,0.4496156830791693,0.4506687594415894,0.4614281755665146,0.4676282437730901,0.5036219131989188,0.5523447259745633,0.5969078195377562,0.6428919577198313,0.6919383992508001,0.7410152141493873,0.7877719452098431,0.8253146873416564,0.872671400095121,0.921751099752735,0.9702146331895848,1.0,0.9694680013282022,0.9205886539299,0.8715047395153834,0.8224208251008667,0.7733841899822629,0.7277134701045052,0.6830888121645264,0.6391815932182063,0.5959573880786517,0.5553925907192696,0.5213592640987383,0.4921508344416945,0.4728410898915807,0.4654937474904046,0.4513040704629789,0.4284769091028877,0.4004897813925858,0.3706043648653017,0.3388612817309435,0.3087324634959785,0.2857734690308398,0.2917682334713689,0.3210198024340025,0.3569632941715777,0.3969899976157787,0.4378995302613993,0.478821545400492,0.5215473534016093,0.5639646058426975,0.6018199976333429,0.6369218174939342,0.6680809312287213,0.6669707758640391,0.6394265949685158,0.6125239634463995,0.5873466932005531,0.5632378856369091,0.5419742526155649,0.5311996133323629,0.5366667889468233,0.5471187517475127,0.5525446855516085,0.5471552201635921,0.5452830306796668,0.5418777969792337,0.5488331250272847,0.5543236772502689,0.554157531004613,0.5505702209315766,0.5418301111399604,0.525326437115756,0.5195339715716076,0.531168710133548,0.5453512963794571,0.5499946963665212,0.516792732315589,0.4683063670043177,0.4194183287434494,0.3751675981193056,0.3288478926327782,0.2821060787615717,0.2382111167064836,0.1894504590582386,0.1435904774576258,0.0989126510518422,0.0505621024961474,0.0158722438215582,0.0290748953940502,0.0696597839369568,0.1171966498785176,0.1662753806644494,0.2153590893542296,0.2640849565769059,0.3077236842798754,0.3548187115142587,0.403891711979115,0.4529756263936315,0.5020595408081481,0.5511434552226653,0.6002273369698223,0.6491109421328058,0.6932955644328684,0.7397007785230849,0.7887597865373295,0.8378437009518469,0.8869276153663632,0.9360086281295747,0.9822689249903316,0.9837158965906716,0.939766337397498,0.8907230669836388,0.8424330073762571,0.7992256105583302,0.751270994105548,0.7021952266161606,0.6546776281870841,0.6123570646403691,0.5720871436616346,0.5379509707291337,0.512726566312852,0.4963326017831428,0.4851475735546204,0.467698667428019,0.4436180616037406,0.4141637572348899,0.383456652736726,0.3493203121084753,0.3156704562067964,0.2829415263500805,0.250470972992322,0.2291658385250321,0.2411498835031054,0.2706241143250674,0.3069947447051384,0.3418349809772154,0.3833559866373173,0.4193485964522458,0.4504981172775357,0.4767959128811965,0.4951481434836697,0.5083869972013308,0.5185162334381743,0.5299456269408567,0.5390290770774695,0.547513271816314,0.54921641881439,0.5480590462292256,0.5408597821271837,0.5405704487650287,0.5381866308151382,0.5381872055614103,0.5419600582763981,0.5441386128285193,0.5437925652992543,0.5294027100785623,0.5268278812602301,0.5380784488700265,0.5493021477789914,0.5312437631625402,0.4896670285022313,0.4421654363759375,0.3980000357095541,0.3516229339996619,0.3060258263508015,0.261124105453635,0.2133231622339799,0.1701262070509104,0.1218111044058942,0.0755998840544448,0.0340965218325931,0.0287359057174753,0.0689703277197352,0.1178646912363859,0.1669369840645446,0.2140083854434206,0.2576657145890568,0.3063972469120137,0.3554810183359083,0.4045649327504248,0.4536488037607185,0.5024822167422263,0.5464898244481373,0.5931156103144954,0.6421812640650904,0.6912651784796067,0.7403490928941232,0.7894330073086393,0.838516050712014,0.886924677937567,0.9301180055677284,0.9667904507435094,0.9410721527294272,0.8923255142523501,0.8453423083141558,0.8016256862319544,0.7546135352646124,0.7111874486952487,0.6658619153669623,0.6220408529158619,0.5809772385910701,0.5451339605673995,0.5150635744952545,0.4945183890558302,0.4832841640449563,0.4655599964208632,0.4440783904193865,0.4190607888439848,0.3895254571020099,0.3568596457547983,0.3203845544016541,0.2902542659534153,0.2631815931481407,0.2530631864211012,0.2770240689010197,0.3122640063054067,0.3486791816927217,0.3848106828161111,0.4229693131487215,0.4573121574627732,0.4879309813178165,0.5124829908370747,0.5275453765286771,0.5263792135279213,0.5195104285470884,0.5146497597502175,0.5154653378516434,No
7,0.4253285384623013,0.4258164796061439,0.4355216095106242,0.4406203296062809,0.4508382676141416,0.4516594095355581,0.4516254096120602,0.4465124290281288,0.427188889096088,0.4002364604604702,0.3688013178998792,0.3348224392079482,0.2940370117737498,0.2528651619625597,0.2116933121513693,0.1704999737944363,0.1282745071626587,0.084502258649121,0.040335356433953,0.0,0.0074627906873647,0.0428718124880387,0.0794679240048572,0.1160515766794485,0.1546874551259047,0.190161824472359,0.2271088464302249,0.2659661384174629,0.291429828493992,0.3132780813541624,0.3349982634067379,0.3534299467203321,0.3742676030029606,0.3944268862509066,0.4183658392067668,0.456126996522197,0.4986659593735965,0.5450161109657858,0.5936652113918006,0.6405937185924007,0.6903232841568823,0.7392530069482581,0.7869723666114994,0.8347745227944543,0.8835949357217738,0.9382037719086762,0.9816423980241432,1.0,0.9741195982046204,0.9249628502641104,0.8701264916910683,0.8185109657479606,0.773081157427804,0.7186370400738076,0.6637546360581275,0.6088722320424469,0.5540485783200144,0.5053222022119708,0.4572973582590545,0.402508197375774,0.3476261510153713,0.2936606485393889,0.2497220440232874,0.2335144245053104,0.2741915418910627,0.3241846852136056,0.3698125988448528,0.4169465712461586,0.454543962183894,0.4769099032243167,0.4774304611286069,0.4676553385318782,0.4569259319024308,0.4514363644119767,0.4386688901127011,0.41523541704295,0.4289334221476291,0.4383431920515495,0.4384941198582868,0.4385131354889617,0.4431140601839636,0.4514223581558672,0.447739890768045,0.4388254456210809,0.4376668786086499,0.4275673190165414,0.4331524773482842,0.4387142281442164,0.4502294928821557,0.4646375057436107,0.4745603265687657,0.4779805390972673,0.47764449819622,0.4669596305658827,0.4454091223398766,0.4215356866986792,0.3862530188649073,0.352648063735395,0.3121499981494207,0.2709781483382301,0.2298060707465841,0.1879408090499166,0.140862644899582,0.0942807990740153,0.0487413149320785,0.0094856387503072,0.0045460737829339,0.0384981000924697,0.0747037411809048,0.1088210819120423,0.149686023609066,0.1865679657032053,0.2281409299433576,0.2603349162694623,0.2877998863495854,0.3152391222378417,0.3410042579792063,0.3602227353672091,0.3813138619956282,0.3967005103428866,0.4153919012158518,0.4455948695667469,0.4859436463518007,0.5314775059639341,0.5759149027116397,0.6284616588291021,0.6738515988705784,0.7255108998346627,0.7801722763432406,0.8267346785280818,0.8769365843019243,0.9252314750812044,0.9642180295990436,0.975015591722201,0.9533176114831514,0.9118922729466336,0.863434266968536,0.8086276611455383,0.7537913532628582,0.7045262443997,0.6570331058916974,0.6022636264788659,0.5473812224631853,0.4924988184475061,0.437663047132582,0.3884349962640785,0.3409056051121042,0.286134973597878,0.2325354964134884,0.2182013466493073,0.262642200785804,0.3074947584878376,0.3588273571436247,0.4034976209200036,0.4512281268701432,0.4683825821775107,0.4776305616887746,0.4750720585936219,0.4648813838426076,0.4550370276615827,0.4466266934948981,0.4298233298716991,0.444702186068274,0.459387319551495,0.4647834790593714,0.4648349642785248,0.4681267220790395,0.4726588455517082,0.462523624625351,0.4599650134977326,0.4583752438135566,0.4478046263919868,0.4388220632261892,0.4384941198581962,0.4390629794174123,0.4497981356816867,0.462575597642282,0.4705813311743685,0.4778457228143677,0.4756412502509803,0.4652517315339892,0.4545053877566012,0.4319897828906245,0.4046106155967863,0.3726743234669682,0.3311931477142908,0.2872134387144673,0.242852548318663,0.2016281936551451,0.1609631048509137,0.1221295114679386,0.0789400575802408,0.0435183739098257,0.0442124041556042,0.0797701976041385,0.1231270787860672,0.1643761607169209,0.1983542393431636,0.2341598906712869,0.2636528614363032,0.2892057253641646,0.3121127809333881,0.34146297324873,0.3660987853028268,0.3807357462612986,0.3987586911736094,0.4154058128521272,0.4496543760823894,0.4908377258042993,0.5384817208592225,0.5833917980864989,0.6332022767425194,0.6779374566318697,0.7261267775176381,0.7735050531808922,0.8187522981151343,0.868504181772809,0.9104173828782818,0.9357160486969418,0.9164365574715224,0.8734879191180771,0.8196244901337097,0.7647503896474919,0.7131458074596257,0.6677067155832028,0.6132607591743109,0.5583783551586303,0.5034959511429511,0.4486135471272714,0.3937311431115904,0.3388487390959107,0.2839663350802315,0.2291454618025352,0.1891446494633015,0.2153709500427105,0.2674572255693235,0.3167814559697448,0.3638552519778493,0.4092611653235138,0.4515896784230655,0.475742128150749,0.4887874485702141,0.4905639404221436,0.4766564720437976,0.468806679465529,0.476657101194387,0.4608751124849108,0.4569034762037098,0.4657727919268701,0.4762345054905785,0.4779832489947697,0.475397619537008,0.467485257385535,0.4737080581745116,0.4652346939039842,No
8,0.9613364770900956,0.9234514976001796,0.8830933279638327,0.8344508540787476,0.7852827450975663,0.7361151648494944,0.6880562280281586,0.6480216517802537,0.6001863027047927,0.5510191787606367,0.5018510697794558,0.4526831708429348,0.4041822115776425,0.3638234654564907,0.3168718387682099,0.2845776468966294,0.2951396276440914,0.2966402367956566,0.2909237650120477,0.2927704938837041,0.2784798564511075,0.2621596738865497,0.2558491375826563,0.2762444831233146,0.2880691462917253,0.2942906714440132,0.2858784763670434,0.2899966646180234,0.2967176707273122,0.2968909788232183,0.3026849021037672,0.3190613463109879,0.3203944124688844,0.3285699945688836,0.3315935207214431,0.3316012183544041,0.3309450415150434,0.315578037242517,0.2886239442795717,0.2620134092915782,0.2273686528811191,0.1993516783446396,0.1605986440845361,0.1240002216131346,0.0936187896180604,0.0816612288453557,0.1017388108840715,0.1263209684972979,0.152822690341567,0.1811764672244913,0.2058348549379804,0.227504272632262,0.2464948415151322,0.2603586243031612,0.2732674155658392,0.2831327663378211,0.283648746220295,0.2780232765935131,0.2971482332212252,0.3337779835489931,0.3780671571110821,0.4188362109617367,0.4675287695306944,0.5166968422972795,0.5658649512784604,0.6150330602596412,0.6640719552515169,0.7062946776303183,0.7509956534326592,0.8001285176153887,0.8487554575721727,0.8891180870907411,0.9360598342390124,0.9833278875303106,1.0,0.9741169991928658,0.9267968784809284,0.8842021954201429,0.8398638138287824,0.7907307350123305,0.7415626260311496,0.6923945170499688,0.6432269512877351,0.5952041493092382,0.5551609266448616,0.5072981326005492,0.4581314866890675,0.4100906172891512,0.3700550407791145,0.3240965978138128,0.2889839817116382,0.2911282866177234,0.2883666751396305,0.2813493841712775,0.2730299259533706,0.2585057108558048,0.2433285832422971,0.2316394075647141,0.246349609266069,0.2611851467430628,0.2588481242607126,0.250850984188403,0.2460794675225424,0.2432040226430807,0.2503622341919105,0.2506500389685249,0.2566874886102481,0.2621167050563424,0.2668721339153088,0.2717693362058135,0.2621395135276434,0.2519437344254065,0.2385538239038898,0.2131511521667553,0.1834101290194452,0.1461427688896224,0.1117717650808753,0.077838039268824,0.0425822582286055,0.0149189035494423,0.0,0.0188874056475985,0.048016913589713,0.0750802393375527,0.098695282542327,0.1240694718785586,0.1443196447269616,0.1626357657682924,0.182382904389692,0.1924206666231425,0.2012442285412037,0.2109940460598771,0.2255069443180271,0.2501739229824449,0.2830012859765864,0.3224454073242206,0.3666423681218984,0.4130152052921541,0.4538235650698801,0.5025297145699463,0.5494987880307662,0.5899267054836992,0.638459597966269,0.6870708229217684,0.7273947623756212,0.7743914855290348,0.8235531649200789,0.8710431341507272,0.9077994858114432,0.9103350865123364,0.8746426919489645,0.8279093594784355,0.7787451571996966,0.7295770482185153,0.6806067388325499,0.6386962438406187,0.593630148617811,0.5444815908627669,0.4953134818815856,0.4461459306051911,0.3981592634695334,0.3581073943886834,0.310217553736082,0.2619350347375075,0.2293332418592157,0.2467649028503704,0.267197417831668,0.2687462187846348,0.2531564300697042,0.2402809795313076,0.234277475176257,0.2149268359970308,0.1997525261567494,0.2162598040919714,0.2299345841480891,0.2386238654415844,0.2409596561822293,0.2508451810020689,0.2605776997669227,0.2621398485217217,0.2640880691948977,0.2730020292312358,0.2749812262566327,0.2840933964509029,0.2852201139996881,0.2789383374588299,0.2602757159376636,0.2357650257016104,0.2060102463911961,0.1751790890950959,0.143838172967927,0.107871586094902,0.0749075417629319,0.0417967994267285,0.0119941983497362,0.0200300826634904,0.0443187983537043,0.0731048290635256,0.0991400520916621,0.1248374445135556,0.1538820971532084,0.1772292746643575,0.1992885760721368,0.2142662688933494,0.2282694651298351,0.2405503337198484,0.2511623248208072,0.2646962933003975,0.2850944320470256,0.3209616859569695,0.3697927374991838,0.4130782330247813,0.4566879863032502,0.5055548380808936,0.5471156127134318,0.5925803556455826,0.641728210842127,0.6906554734127419,0.7322399129633879,0.7776763682240646,0.8268236681978753,0.8757561087445906,0.917363054346256,0.9612317783649028,0.987569119781563,0.9710806425587704,0.9259635505458128,0.8770142787761355,0.8351932184308648,0.7900309071016869,0.7408816272917025,0.6917135183105221,0.6425454093293408,0.5933942227963929,0.5477597538353969,0.5063409687115046,0.4574499519735933,0.4082819516362019,0.3596692261104381,0.3190687931744536,0.2742413788274946,0.2727176119437411,0.2947949411554673,0.294868959478308,0.281276618934694,0.2734644840327256,0.264636728575065,0.254509268909191,0.2695596773307576,0.298734640328985,0.3205273077933959,0.3310825226323024,0.3316013125122248,0.3316013849414163,0.331601384941415,No
9,0.00916139676211,0.0165419788715293,0.0557681741344637,0.0979729839785306,0.1089190669744963,0.0738346312965543,0.0415251744189899,0.0115375073687316,0.0,0.0150715794970794,0.0584121024986186,0.0951846280039325,0.1359787917078829,0.1835400088927214,0.1915303159972889,0.1532686107441354,0.099745456828634,0.0559577039553191,0.0398336916264541,0.0580653189156441,0.0350391973160855,0.0113924013407777,0.0163698583241651,0.046632341424484,0.0851512584138745,0.127509408807672,0.165595147401496,0.2029812289286421,0.2465408110111226,0.2855661428315188,0.2790711113689705,0.3037067678058549,0.3192883904959331,0.3575525445535841,0.3905382637142462,0.4341725851578966,0.4660545866237608,0.4869809683863932,0.500976610275965,0.5004018508998409,0.4868781081732436,0.4743987261710649,0.4688006245448735,0.4563066993292239,0.45176540723158,0.4402433236083896,0.457991201864091,0.4715476293276848,0.4891942210957465,0.5053392482968855,0.5180957066046261,0.5116625411728317,0.5185662580201145,0.5347636568768617,0.5352065567958766,0.5368207415998585,0.549463502179873,0.5389125885571979,0.5443976986283485,0.5490571327783669,0.5361324266142651,0.5352061962963721,0.5352042743309049,0.5331000276612752,0.5112971437004372,0.4939506349824643,0.4652896176430667,0.4351739798557479,0.4263448850725999,0.4532321064564644,0.4835573005030151,0.5021947166393668,0.5156590013402389,0.5306838674124181,0.5301631337688928,0.5057090975030256,0.4736558791015257,0.4328289179290361,0.3872696099802519,0.3453349038548898,0.2894865020568882,0.2301159626681332,0.1954581733497833,0.20774632481245,0.2585875036989233,0.3140085546687126,0.364388737878762,0.4251402742653014,0.4861552237497069,0.5471696094296292,0.6068903529407925,0.6547145990707683,0.713769541565378,0.7747758393891999,0.8326467928113503,0.8810636148774416,0.9413803948129766,1.0,0.998936639447864,0.9515088032888944,0.8948013345929726,0.833805101915158,0.7770449585488479,0.7277116140433444,0.6678438956732164,0.6193277651153406,0.5628350035272565,0.5148381661248607,0.4612211546730966,0.4212480014473838,0.3960747176228762,0.3677023312376581,0.3529566950655618,0.3383637666250476,0.3228942132724839,0.3028597855872297,0.2845113038036855,0.2603633237861857,0.2339623785573716,0.1939955984252876,0.1534703402176145,0.1195949640408913,0.0890788319415678,0.0614890081809069,0.0429893348643366,0.0290443298594911,0.0478219667795598,0.0843677180322366,0.1177908885382321,0.1582491721474777,0.1989582359084902,0.2396033367679444,0.2809214911933906,0.3245384919398479,0.3616869220984031,0.4013797769711651,0.4305135856133923,0.4460282237379509,0.4529118559129466,0.4478252991473019,0.4365479100283282,0.4251077130351541,0.4143498617384598,0.4038755102982407,0.4036302471479787,0.4034798450581753,0.3948187094310502,0.4009016839474539,0.4005816266947479,0.3951267850824465,0.3953389608895219,0.4003969782797276,0.4010863323624898,0.3946797602524068,0.4034215735755997,0.3972349333926903,0.396946407005438,0.3944864985482121,0.4122697726646267,0.4107658661940445,0.4176407015552676,0.4005012154829175,0.401296487472047,0.4130430210207048,0.3993271689955859,0.372598916768982,0.3448746907488669,0.3495161582593744,0.3748806216405835,0.4060579397076269,0.4226400423609506,0.4414681947500165,0.4526959788102394,0.4470912065862018,0.4227196354861364,0.3806207737516152,0.3433045055723984,0.3074143403665617,0.2514654149247843,0.202499719038887,0.160683129080815,0.1762752379777232,0.221724416483481,0.2794428817534755,0.3404546202770317,0.4014688550501764,0.4609016176136773,0.5087181781993215,0.5680683344655977,0.6290818775826845,0.6888426184476901,0.7366910890945717,0.7956818725962562,0.8566952710943512,0.9176825839275292,0.96787138541541,0.9412053665012374,0.8808174604254,0.8201677753782777,0.7708384270429063,0.7142070767356365,0.6536412106217173,0.6047477077950587,0.5486298329959904,0.5006269174256719,0.4514421462805105,0.4095806055289119,0.3673674585509454,0.35266543166833,0.3392572827804652,0.3368680921489915,0.3238966144847581,0.3109312285921697,0.2865102307728575,0.2592711225355892,0.2287761642562191,0.1979811200412307,0.1565853317778813,0.119185035073964,0.0835397468304535,0.059395607443716,0.0319311466187617,0.0255367131902231,0.04266538530223,0.083378999090764,0.1214635858956252,0.1625788373886121,0.2080334455192085,0.2488659449131121,0.2915257730273235,0.3356277588923122,0.3708619262288977,0.4014055388693807,0.4317958671164819,0.4517740355248789,0.4541057854868509,0.4668438324613921,0.4574704790010999,0.4502327572851015,0.4322807131647082,0.4209987379251245,0.4258375496641871,0.4202074713996477,0.4207803772576821,0.4332526985827512,0.4378557523552784,0.4510738576526272,0.4529697056495023,0.4529786005098022,0.4561991152828555,0.4684135584287516,0.457807039294686,0.4607956359342982,0.4693406715816031,0.4694180362328017,No
10,0.4044143704402145,0.3803760963254647,0.3491286030474911,0.315360584619371,0.2967894829154227,0.2961911157852239,0.2978924538358527,0.3156638986064941,0.3298681511270331,0.3201810068830124,0.300995909206744,0.2885340640349076,0.294134234337569,0.2961827515830708,0.2961891949312414,0.296129516507627,0.2915611605422941,0.2872979390950307,0.2850829912508379,0.2786425459483119,0.2766651084560911,0.2754399770113773,0.2866541759198744,0.2959896122819292,0.3017428872843104,0.3049321812300112,0.2993191467782208,0.293508776140863,0.2784188423769962,0.2557464188516847,0.2277954052055686,0.1972377395193816,0.1674014251287716,0.1374726532442727,0.1095325798425914,0.0790172922429754,0.0490991494827199,0.0242951579564252,0.0065861787461292,0.0214495500772646,0.044741862645979,0.0699455902239731,0.093262910473103,0.1144607549892731,0.1339325607879271,0.1530812100006249,0.1687909060667525,0.1816841349387223,0.1933368685515029,0.1997413424342431,0.2150871256840294,0.239412296328414,0.2685600727500223,0.2998114525358799,0.3317636275088838,0.3686116255218825,0.4050432280121683,0.4377717401408476,0.4764631493012512,0.5142200249563147,0.546128102081858,0.5843149385482611,0.6232226286039793,0.6587905364826938,0.6923073734796055,0.7310924028189378,0.7700205794296255,0.8086036558246741,0.8410265589327601,0.8778770385367405,0.9167965126215296,0.9542533665323129,0.978689204830266,0.9675390250616942,0.9364805847501134,0.8980176982477357,0.8590969752582784,0.8224340581440328,0.7898603868781859,0.7512397419078962,0.712311825224639,0.6739453955302313,0.6418755772768541,0.604459364605743,0.5655334497296702,0.5266063593204053,0.4889078827005817,0.4569336849544401,0.4190414840554914,0.3877442289716193,0.3587554914316442,0.3275798771462888,0.2949091102437537,0.2718457096168318,0.2728964535042357,0.2786148092385743,0.290605038767141,0.3033133489422512,0.296128987476141,0.275259031504953,0.2654856401826413,0.2738125632223029,0.2782689977279167,0.2783193406386295,0.2783193406386288,0.2783193406386286,0.2783193406386282,0.2783193406386277,0.2782247881870039,0.2733045470383815,0.2694153871949047,0.2693855459081689,0.2704798182962253,0.2790841933678281,0.2924322008832711,0.2961664267831538,0.2953068982894118,0.2868029643318512,0.2681846736495263,0.2426587225851766,0.2175238929769634,0.1896337938309369,0.1604175389255808,0.1296511514410763,0.0998096101162602,0.0706130811563434,0.0415626354322262,0.015121359065243,0.0,0.0151240027270389,0.0392609573379876,0.0632061850877299,0.0881216181341597,0.11048608983744,0.1302386330946003,0.1528608875939607,0.169224633831998,0.1822152968057016,0.1968761919961177,0.2098819766054585,0.2211216738134145,0.2374069215137768,0.2626005289021431,0.2928521443892951,0.325510816811555,0.3604812388561118,0.3931128495855791,0.4296603046574019,0.4682701953540085,0.5008322690692586,0.537509614067329,0.576430396613961,0.6148906526668725,0.6470034265835498,0.6842843245411652,0.7232054498482081,0.7601490496119685,0.7925319206202215,0.8310585276901297,0.8699867123735496,0.9089149635874254,0.94783719428684,0.9841531946126144,0.9999999999999998,0.9800171701170112,0.941798961111456,0.9084288676507224,0.8727014423995401,0.8337914976985437,0.7949165840940451,0.760474397340482,0.7258865625319468,0.6870134199893394,0.6480895114630376,0.6108689304232964,0.5787142367547322,0.5402351964141994,0.5013539108020721,0.4666201292269045,0.4324729329665795,0.3999177319572276,0.3744616582903892,0.352979913014543,0.3214580071492168,0.2934993860506389,0.2937052021542452,0.2962108883644565,0.3013087418516877,0.3240043077257408,0.3267503424355849,0.3068792521162342,0.285633591761,0.2801681627587451,0.2867680174266864,0.2873720518368825,0.2917420017570902,0.2880723398705112,0.2872546090520378,0.2871379190657837,0.2819977496776054,0.2783408294780924,0.2770374177867003,0.2683958184043924,0.2615111001899497,0.2682763573579725,0.2764663605480415,0.2861493255974829,0.2918583674538797,0.287533035185046,0.291636550182627,0.2823532548635581,0.2662483465765755,0.2465664941952821,0.2223734936243913,0.1951488376303687,0.1659331547994207,0.1366975019456642,0.1074638903028115,0.0755443165177709,0.0430795120850875,0.0191497302607952,0.0059516125131418,0.0248182398994363,0.0513439840593701,0.0753916192789454,0.1003140440789893,0.1236438339272385,0.1442332295627506,0.1651580981574829,0.1867233642974655,0.1901636461436187,0.1987805304387955,0.207312962331416,0.2208999592496869,0.2409435320841564,0.2684126627114926,0.3011744240646843,0.3330704428936337,0.3713481578609559,0.4102756759342858,0.4484072428232575,0.4803677431293112,0.5181268064839992,0.5570425778156824,0.5933354365569146,0.6261943951310134,0.6649038930268167,0.7038117594958411,0.7393397880314414,0.7728932797349466,0.8116819403936761,0.850389304624042,0.8833109024077996,0.9194141933509872,0.9492649768349086,No
11,0.6275016465036728,0.6103918798587155,0.5928416108028877,0.5718101169753259,0.5438046662555581,0.5139035275904261,0.47678955491826,0.4414022313699269,0.4259033905335657,0.4178729223833693,0.4010126024363106,0.3730778553773936,0.3426116226204824,0.3162257862728634,0.3113050496070051,0.3312857368116501,0.3629431673384314,0.3986842697518512,0.4359043601606375,0.4729608677546982,0.5129075859947717,0.5502806421940459,0.5827277694650209,0.6124513876076026,0.6281084512763911,0.636272544440024,0.6439201167883043,0.6458827208838759,0.640394952808225,0.6441640778182688,0.6532282031903806,0.6583755101394299,0.6549824815220046,0.6449985822492988,0.6369500413415575,0.6478444397290176,0.651837164473757,0.666598477122034,0.6714707529196396,0.6511164187187223,0.6112540489914343,0.5681725007609969,0.5242569099608588,0.4767737258234751,0.4292507565762241,0.3841568863374579,0.3416356173478913,0.2961391628181893,0.2600833449036295,0.2146969531343507,0.1671772976300493,0.1219980600045201,0.0801022051220152,0.0515495933280105,0.0756647770858607,0.1177674635280358,0.1622849724626242,0.2097936684412976,0.257334974725506,0.3042564751455561,0.3460464291703345,0.3922381481771065,0.4397764894072183,0.4873183927136119,0.5348210541097284,0.5778631621480365,0.6151608421569069,0.6620329280438874,0.7095745181134835,0.7571164214198777,0.8046281540829908,0.8490878181670899,0.8726670425267339,0.8425659302138889,0.796657583228301,0.7550000350807001,0.7104531285961778,0.6725128495837315,0.6416688968189926,0.614264781519683,0.5969862620925831,0.5795245355674995,0.5571331391978794,0.5248392595677976,0.4938331364169755,0.4615425185163498,0.4278956697318382,0.3931564718733064,0.3593913462335704,0.3285744080745907,0.3082227694650259,0.3133177358689649,0.3399448867803275,0.3766224128758905,0.4155348754679809,0.4535866645350247,0.4913351112210723,0.5272787546203085,0.5622695601923767,0.5930041099965523,0.6172469178443333,0.6293476392018723,0.63853590094461,0.6416199879865779,0.635257331744946,0.6391161760241751,0.6425861999733692,0.6452848779331725,0.6530040489551338,0.6515141436435746,0.6377602429181933,0.6279958653087206,0.6451940737495055,0.6502478996791198,0.6651368904684446,0.6677383426027296,0.6451644998045413,0.6050842769744021,0.5597968501190386,0.5178487892353573,0.4707739717818758,0.4232322706658235,0.3756904879800135,0.3285418634812442,0.2864592034658985,0.2407819155008348,0.1932494496999037,0.1457075463935091,0.098165721490495,0.051242378277953,0.0264045378524917,0.0526441857744369,0.0975421467899799,0.1436785288477569,0.1854547539708184,0.2324287393827393,0.2799702446412071,0.3275121479476006,0.3750540512539949,0.4224537152967561,0.4654682246251574,0.5099862729348473,0.5574949689135219,0.6050368722199152,0.6525787755263087,0.7001206788327025,0.7476625821390966,0.7952044854454904,0.8427463887518841,0.8902882920582776,0.937830129023351,0.9845418005048908,1.0,0.9641086036241424,0.9173799898359806,0.8712183027951611,0.8294149791513984,0.7833967585788878,0.7417372121795937,0.698149397590275,0.6601739950668689,0.6302062300042385,0.610611423309981,0.5937666760148369,0.5714622464677569,0.5442667492696885,0.5146618593526889,0.4845129949078329,0.4517547381035681,0.4184447797404264,0.3806775712253213,0.3432758867420483,0.3179887320372571,0.307333953951313,0.321733865593892,0.357676839738355,0.3914446423040453,0.4291027215300774,0.4670604240838255,0.5039951724549184,0.5415799626650087,0.5730648147025871,0.6053462895392451,0.6307152585744374,0.6452048206518458,0.6522724252976858,0.6429198484557642,0.637454190662644,0.634374543896539,0.6414024005123952,0.6462317820001634,0.6458340577765856,0.635161349251877,0.6204927175850014,0.631026751886934,0.641934087938593,0.6535691009323638,0.6585218709355171,0.6342667399673044,0.5933903573380642,0.5462229765664214,0.4986811803107965,0.4511392770044021,0.403677596274362,0.3600141926906991,0.3161744854460943,0.2686983593448748,0.221156456038482,0.1736147517560508,0.1265154817818272,0.0845256398256538,0.0388167215163265,0.0,0.0051181202659114,0.0474301851461717,0.0899938249078852,0.1350021347669553,0.1825229782082467,0.2300648815146413,0.2776067848210357,0.3250676185105616,0.3687422861719248,0.4125753835782965,0.4600477024805615,0.5075896057869559,0.5551315090933505,0.6026734123997434,0.6502153157061378,0.6977572190125306,0.7452991223189246,0.7928367814200227,0.8389980272692786,0.8807702551473738,0.927736924590082,0.971915235221421,0.9667563629944734,0.9209300023118376,0.8752124837413705,0.8331823596186364,0.7872793810828359,0.7455956017293376,0.702223466776085,0.6597560076137375,0.6243893434874664,0.6014563726946479,0.5856770100604524,0.5634520036633536,0.5384659652188281,0.5105371014896108,0.4811775482376476,0.4477679291363402,0.4147184355439383,0.377218233963179,0.34155316626904,0.3139089533229187,No
12,0.4804141056081341,0.4943767141410555,0.504547014825407,0.5044679915472545,0.4945068645916455,0.4876452822717092,0.4858591988524678,0.4903650324036159,0.5034263073127325,0.5140235271387981,0.5208369008437395,0.5286948330641812,0.5329104789349266,0.5369622393035411,0.5396257971778378,0.5423606821470826,0.5460650263301163,0.541091285852366,0.5342482181231574,0.5388592664968639,0.5503404677217725,0.5630194652667673,0.5719285311328519,0.5794330786714654,0.5715276304644488,0.5475488337882073,0.5161604010598384,0.4847061838894904,0.4556003832400512,0.4227098270069278,0.3942447816550362,0.3618739754190991,0.3303445531929053,0.3012903618814352,0.2679435935834001,0.2343942924330708,0.2012830116227401,0.172776336401601,0.1404678688433998,0.1069216776950509,0.0734128869600193,0.042989647958709,0.0178624381786797,0.0178185724148777,0.0429265911289782,0.073334341188919,0.1068425514292865,0.1403920881151052,0.1739416248009244,0.2074911614867434,0.2410406981725622,0.2745902348583809,0.3081397715442,0.3416893082300193,0.3752388449158382,0.4087883816016573,0.4423379182874762,0.4758874549732947,0.5094369916591142,0.5429865283449329,0.5765360650307523,0.6100856017165712,0.6436228028789139,0.67513568200264,0.7041907919946477,0.7375580158695301,0.7711075525553492,0.804657089241168,0.8382066259269869,0.8717561626128059,0.9052209988855836,0.9269250964132638,0.9072348267975684,0.8834180641031568,0.8607319387656911,0.8358554196527659,0.8064881040528498,0.7757486211007205,0.7423026187340938,0.7125223023962497,0.6818282710932788,0.6496901299688502,0.621212795846833,0.5919605876619316,0.5687502304525651,0.5465464744810069,0.5270430165345077,0.5158675685196294,0.507169498818216,0.4962056729097661,0.4833502171157804,0.4683052903521181,0.4524976966860483,0.430010800994639,0.4111677194543799,0.3858195791276847,0.362904006232316,0.335765744468568,0.3118247201622912,0.2946596633130316,0.2805340198295382,0.2844835396198286,0.302731140013156,0.3233796075133918,0.3469488237325984,0.3720857951605409,0.3960798054741438,0.4203097980701245,0.4440058041606141,0.4654621646307373,0.4867665071403044,0.5060197227269416,0.5164443665354195,0.5181537229408764,0.5082063532437979,0.4992154304927572,0.488548893425673,0.4872386788342255,0.493567604631655,0.5005270815783291,0.5119250918988509,0.5215094624383292,0.5284591639476572,0.5318311407132044,0.5304049802710424,0.5309554560410175,0.5287209362737693,0.5298735130262733,0.5310595341505513,0.5324899066685993,0.52862753721616,0.5271795152727068,0.5169282338761896,0.5091506441092761,0.517529275303712,0.5296679420209871,0.5381079302079061,0.5451554966397281,0.541089433661158,0.523454857157855,0.4957405669436916,0.4655593701811491,0.437219295827685,0.4044693567526616,0.3749398254866694,0.3439612392641664,0.3104354293744737,0.277683174025385,0.2493375477390972,0.2165107774757255,0.1829675223476938,0.150995261643303,0.1222935706942817,0.0890390722371561,0.0554896677551282,0.0222560824441707,0.0,0.0102339552894649,0.0376499848913007,0.0709983530362825,0.1045478897221017,0.1380974264079206,0.171645477140009,0.2040269166398542,0.2275484167381563,0.257045023471639,0.2858813406296566,0.3192174487518823,0.3527669854377012,0.3863165221235202,0.4198660588093394,0.4534155954951584,0.4869651321809776,0.5205146688667965,0.5540642055526155,0.5876137422384349,0.621163278924254,0.6547128156100719,0.6882623522958911,0.7217850549598881,0.7525527360898039,0.7822705346392143,0.8157347664488501,0.8492843031346697,0.8828338398204885,0.9163833765063074,0.9499329131921268,0.9832879381700343,1.0000000000000002,0.9729381719123452,0.9394112529482326,0.90701372468633,0.8785581875535606,0.8454859040715121,0.8119369508514853,0.7788752097726435,0.7504339059550886,0.7180113863266437,0.684938809312974,0.6564799018292085,0.624553595401421,0.5962478309939743,0.5686901840057352,0.542458264084948,0.5163891041213735,0.5007638553148674,0.4907538594183191,0.4817851534593664,0.4688176342174777,0.4564796310997345,0.4406896498038835,0.4239713449163016,0.4047145128455005,0.3803912727929616,0.3607973552134853,0.3374390189682834,0.3153078152050627,0.2942643314815943,0.2756032480337125,0.2660996829330047,0.2767887397393549,0.2938901675751926,0.3165027986431681,0.3405146998246714,0.3650532973677407,0.3902027662112273,0.4153748256559662,0.440361765115006,0.4607060258735156,0.478610039538023,0.4923165550909016,0.4987490643243653,0.4924131339783257,0.4852137132256493,0.4757635438283951,0.4734497161309861,0.4796316966201781,0.4883225527393091,0.4995863929712352,0.5074350103971104,0.5144859540495375,0.5211856610162471,0.5259770017480327,0.5271442346909998,0.5316481516077083,0.5269762012542536,0.5280357563957812,0.5326918222496051,0.5328025644298664,0.5258640582743854,0.5137158825097312,0.5161326360380012,0.5286987902982088,0.5422953872776559,0.5516591995019546,No
13,0.1090445333386724,0.0748126599324001,0.064543044637765,0.0959752848575161,0.1344626370671815,0.1735302016073967,0.2167141837551345,0.2568149703803253,0.2610089428856739,0.2851571276891913,0.3319827847417007,0.3790166040474771,0.4283702029883083,0.474158342586642,0.4926829925166764,0.4968589555292217,0.495707093904995,0.5031520329509627,0.518578945281652,0.5206563358658902,0.5512777229761199,0.5921921639188572,0.6336048752120009,0.6616871607469055,0.6735212014844316,0.6633681251688983,0.6529850790776026,0.6602597723182331,0.6486624815849822,0.6313989225268897,0.6267471216773048,0.6243379431120666,0.6292928661014614,0.6281471774697536,0.6329452692047328,0.6505265889535357,0.6633168609805324,0.6763553155230351,0.6781822832064341,0.6789185690598074,0.6875742036566141,0.6786997749898422,0.6684415177115557,0.6766699355567256,0.6777411214907076,0.6662615275399764,0.6475888995520813,0.6473193334530365,0.6668690038252725,0.7029925420235903,0.7275596971286202,0.734486588291196,0.7522233318973301,0.7477493860084772,0.7495033622985787,0.7210482945160794,0.6715597491216576,0.6252642689206007,0.5812722197991869,0.5342980940034405,0.4771677148422484,0.4241381210453359,0.3751632683444181,0.3176657939879876,0.2614771529749269,0.2145740503132092,0.1591046658724106,0.1250326114178226,0.1320251251051794,0.1711887983374924,0.2259983007224586,0.2837322242240996,0.3414712757236373,0.3992100269017704,0.4561049996125426,0.5032487618255115,0.5586951269865226,0.6164319640679887,0.6741710155675278,0.7318652565522499,0.7840555354158043,0.8337889341947433,0.8913926524123406,0.9490960181891924,0.9999999999999998,0.9954343759335964,0.9482773198972508,0.8970547920272212,0.8501491684991296,0.8012984428515384,0.7521210927307298,0.7079287662303411,0.6736734182759261,0.6444224194926529,0.6129953374150288,0.5949266407470819,0.5820883632712566,0.5689836110073945,0.5428070075909914,0.512645229923282,0.4790881246593248,0.4472222318139105,0.4067846783911621,0.3677206449767078,0.3267622884042989,0.2834521782272441,0.2428828817720456,0.200591555438349,0.1641215900205317,0.1349104560718581,0.1165217565772034,0.1300753214037426,0.1679877668242877,0.2120293899713612,0.2658576413990565,0.3127075991971519,0.3618551000406236,0.4082321248954426,0.4488151772535944,0.4951547705366603,0.541592490080191,0.5852582061340212,0.6248657206239863,0.6597804892396912,0.6838488978417165,0.7034154212161419,0.696887598632628,0.6906107633093359,0.6796958197917664,0.6699874892455602,0.6538525891472029,0.6578571861744742,0.6558102602897324,0.665028969876239,0.6769966852507052,0.6874862834317443,0.6701269023671534,0.6645172863773567,0.6695360610515484,0.6780065233647303,0.6773217721794531,0.6672774838937154,0.6715640022150617,0.663225705555065,0.6529226022606907,0.6617667572484718,0.6525264623592684,0.634525532802426,0.6143471224991839,0.5871015928093788,0.5727761662185944,0.5864120239916921,0.6141153080895865,0.6319284318105531,0.6464241067267598,0.6638948993215046,0.6777101177425069,0.6725021521311441,0.6324593160187961,0.5862391295598675,0.5404975831249079,0.494312015071815,0.4387032922934517,0.3851379638339016,0.3366585519797083,0.2792085082659252,0.2227456245811536,0.1757536154749248,0.1203311923225782,0.0812609832158506,0.0896672126430779,0.1374586847976602,0.1849009175390428,0.2397866462479023,0.2975206544331428,0.3552366085553027,0.408648689100594,0.4573069088133039,0.5147422912779567,0.572481342777494,0.630220394277033,0.687777232442125,0.7374960316888213,0.7897371956929959,0.8474420311218445,0.9051777429883148,0.9593970936605588,0.9567021192288464,0.9059554914390572,0.8574717568648589,0.808688276678825,0.7571506287504308,0.7103530133209575,0.6619312313515497,0.620838949955073,0.5880331957836888,0.5637175631457116,0.5505510798797786,0.5326645887735004,0.5105481010221882,0.4874423932455929,0.4580821412906111,0.4232662046195219,0.3832270338156125,0.3440097002498044,0.3083252954948479,0.2674253029778621,0.2268189072301798,0.1811250795668912,0.1406549976485824,0.099297135175931,0.0619292224988592,0.030516377056063,0.0018980488330087,0.0,0.0315162722226678,0.0773359721336492,0.1208632930327004,0.1675255309739547,0.2160934644531573,0.2627604385585509,0.3111915371998874,0.357850900143511,0.4042884488561975,0.4480561930519664,0.4912062014589085,0.5312737401907521,0.5735509904605862,0.6118360533125966,0.6341580611683779,0.6219117791779387,0.610025257625803,0.6051432244229134,0.5952339435278067,0.5832720012634998,0.5702692201873838,0.5709594489696654,0.5932705300896057,0.6198158186277423,0.64236450761196,0.652896053330146,0.672925860928179,0.7047052286601854,0.7321333539299497,0.7481327165092637,0.7646356150578162,0.7846276621067603,0.7773115778382194,0.7709642625241828,0.7516684527654778,0.7661274518889172,0.7867298802696949,0.7801752627910694,0.7691407727509578,0.7607951495117871,No
14,0.3670195599483254,0.3535811923935292,0.3310066068814516,0.3059349095031365,0.2777593922199508,0.2483984921631945,0.217453966677761,0.1863226751219067,0.1538368504680536,0.1213780608133061,0.0902176213080527,0.0580855262500671,0.0260101907197942,0.0,0.0107739945491724,0.0368682296895787,0.0684067307823765,0.0964653624662386,0.125345769664557,0.1542908262053479,0.181034569882756,0.2097959987489679,0.2377703635873127,0.2632129810262593,0.2852044405023817,0.3074123227049943,0.3269494701170876,0.3463355617162487,0.367484748626121,0.3933268247228636,0.4211875608346689,0.4463577372044198,0.4725202275043363,0.5016912550954793,0.5326485513192951,0.5676610998047673,0.6009280677186934,0.6376745016032925,0.676413999124222,0.7151610739028174,0.7535963772309173,0.7868170888104398,0.8237020653951399,0.8623285346777716,0.8965710293794114,0.9322586138039964,0.9705824080608588,1.0,0.9987884218990216,0.9685282073352144,0.9348493280534318,0.8962932886870245,0.8576258474464185,0.8228934924510356,0.7877323042078412,0.7517474236600272,0.7178119164387933,0.6799708496742602,0.6471439194256361,0.6094362185495608,0.5710040592464194,0.5377019556616935,0.5008956962548985,0.4622760222944522,0.4332827388966127,0.4448627261717057,0.449185808059354,0.4452963582179388,0.4324022407353527,0.4140805325698073,0.4031468886304303,0.4045933985437104,0.413414398783636,0.4154677691506516,0.4153283990551446,0.4100053177393532,0.3983092902203566,0.3977738359394771,0.3937758661339847,0.3941428299907863,0.4005976339708075,0.4069136272119091,0.4075606342234286,0.401933616650995,0.3930402675926112,0.382734739940088,0.3650228480830919,0.342868083945868,0.3156975152101628,0.2820443174017817,0.2508817749992869,0.2198856234868555,0.1888711451343598,0.1566443048756338,0.1240447966380158,0.0914225439377167,0.0608981849504434,0.0324372668422959,0.0251469810153716,0.0484816698496961,0.0795077484299086,0.1096257559931257,0.1386704488212655,0.1668761227537429,0.192849133301209,0.2200609836534086,0.2461866931811416,0.2703618065952238,0.2963274450001267,0.3213927889471977,0.3397130186128352,0.3579721312764727,0.3746850227371443,0.395086344608428,0.4173372421712589,0.4410682253256448,0.4694436249142242,0.501193003971617,0.5345362330923846,0.5701357140313472,0.6042463026503129,0.6400510557886152,0.6786265409338992,0.7126664582851807,0.7485829457002544,0.7872954798066223,0.8239005736527993,0.8573627807802247,0.8958285167860383,0.932316189774244,0.9612858726128362,0.9589695601310466,0.9253829160734932,0.8895828826997785,0.8555044915043433,0.8198718153160987,0.7857290292736014,0.7501607479324197,0.7159229643319502,0.6774083932700341,0.6432168534177614,0.607477854848911,0.5687574557608752,0.5309677324273574,0.4982336847346724,0.4602215577819393,0.421477030431385,0.3855481781936341,0.3902316642081942,0.4066689030529882,0.4072727688806981,0.3986974082562835,0.3817619907221905,0.3756346592411939,0.3717416667915363,0.3691846828729799,0.36539573067516,0.3615846460826566,0.3615256997001486,0.3615272986726143,0.3627254823302552,0.3719711774507206,0.3701782603775132,0.375593859694872,0.3819613606131775,0.3843438420387459,0.3782961296605962,0.370193978594695,0.3640290003843418,0.3484136254942618,0.3260659620681587,0.3002634106136439,0.2722091935522961,0.2414440469210272,0.2076907447551785,0.1747510519701931,0.142353892796851,0.1099469196014073,0.0806185841887077,0.0531748110286663,0.0466510807596142,0.0705636528478497,0.0984690481436947,0.1265845661706133,0.1594420638276119,0.1890254223102272,0.217504287624104,0.2456364547674867,0.273489411062312,0.2998778427622883,0.3253712845312049,0.3467887873824422,0.3657588381175514,0.380778765332471,0.3938634875326294,0.408454996946282,0.4311746755950869,0.4602589821120959,0.4924336747961175,0.5253079155646128,0.5580441978642305,0.5951213136181024,0.6289543057340006,0.6650995823824652,0.7036360544925389,0.737374461368868,0.7736314722941047,0.812347337753871,0.8486384170663988,0.8823505419190141,0.920671451093828,0.952481385057972,0.964528094350848,0.9434099978278694,0.9080250692043664,0.8693032947929147,0.8305561814981361,0.7919408684336104,0.7579459886333793,0.7220424524866638,0.6867492829220185,0.6521613950010541,0.6135345705768256,0.5783378793474596,0.5436320727747608,0.5049560244291567,0.4674218763354143,0.4346811305582618,0.4089010413943714,0.4145532617859713,0.4127697819582478,0.3994941716334967,0.382892702413754,0.3680524465009305,0.3627828354872175,0.3670457153896098,0.3619239521783737,0.3558324639136325,0.3458698669259628,0.3363757455085883,0.3249027396518589,0.3165126448644351,0.3047625756885765,0.2864195223473276,0.2748944368012735,0.2862184995063841,0.2997930594213105,0.3070467438780646,0.3075433646027643,0.3034510871147473,0.2888945224474286,0.2730125106101384,0.2503325757490948,0.2229113588920295,0.197680124697364,No
15,0.620963875720895,0.5926709250595558,0.5578639242183253,0.5226818725629679,0.4874720740089283,0.44866670042489,0.4065881811706623,0.3696055411093958,0.3304378000025977,0.2923532033408508,0.2556927151247145,0.2158713245497802,0.1784002643378371,0.1416216248735226,0.10142244193704,0.0659860956200718,0.0308875586833059,0.0,0.0076009614835408,0.0399244810757707,0.0752636606820528,0.1128439430026234,0.1480262062298764,0.1832030264585195,0.2183851879134594,0.2535670561921385,0.2881636435623608,0.312960658425269,0.3410822693629819,0.3736171986282336,0.404628212171006,0.4359618036103606,0.4695731231727299,0.4971226113306767,0.5234284605202141,0.5474678624795642,0.5693884884333967,0.5866721180352285,0.6025692196176823,0.6223935753755329,0.6503498603290144,0.6845216044092283,0.7209118015383688,0.7629263565238654,0.8001121464808826,0.8418027846623165,0.8794212031154799,0.9201551925943352,0.9485406768992602,0.9329109217323402,0.8971192308942367,0.8540033161297803,0.8100781215384784,0.7661624813513174,0.7245565839713887,0.6871596492182891,0.6435631457494934,0.5996990082383785,0.5615715224008159,0.5535007309857874,0.5866237183981723,0.6255727707145765,0.6622530540511918,0.6913417874083535,0.696720371911825,0.693437694364989,0.6861538570788207,0.6716298139443034,0.6561759281727911,0.6600407384641765,0.6661061456721719,0.6691993747141464,0.6687775556011933,0.6619696360926951,0.660017865028187,0.657026353949952,0.6508756728362882,0.6449731906328847,0.6396906797173966,0.6312100891268418,0.6238698450050669,0.6267735107743954,0.6356397884846002,0.6491537958774051,0.6592406508504084,0.6571883951963705,0.6439944119314694,0.6248862442494939,0.5960926689850569,0.5632291789742087,0.5289414694973801,0.4932098858607067,0.4567323895244078,0.418076284991094,0.3806186665902576,0.3439556084725162,0.307131421861993,0.2671038968647324,0.2294140715623492,0.1881871837090077,0.1452762641392208,0.1088343050214636,0.0723476920930682,0.035642613490271,0.0128905287455179,0.0339522171527456,0.0667537952011422,0.1009661870135311,0.1366317795883963,0.1714443652360496,0.2060610119956943,0.2468579377292491,0.2805086121527661,0.3134213938676814,0.3467942327212129,0.3807034804611965,0.410192768471228,0.4394730706675455,0.4677249965879472,0.4941065153341627,0.5203401089182801,0.5433170962453567,0.5621649660681417,0.5797528483851225,0.5983824730121555,0.6248925847276724,0.6584787160273101,0.6936215717938518,0.7301702622833103,0.769265000560685,0.8084039892253875,0.8487573044544915,0.8871516610145763,0.9294803954432752,0.9576580114945746,0.9481906380328708,0.9135669239332668,0.8713326413132906,0.8274110660709518,0.7841163891776629,0.7471752111774891,0.7048190201604704,0.6608962457544817,0.6176819632855778,0.5808744621711753,0.5519766180824973,0.5752474903924228,0.6165107698905735,0.65322960033152,0.6877223695791167,0.6966502604279955,0.6967648054046734,0.6928808359145454,0.6766882929053147,0.6653201256652469,0.6669846324707617,0.6631558455396506,0.6688800507358904,0.6648440006176476,0.6597149084496546,0.6529466477719802,0.6501056805737079,0.6430034537171062,0.6373239246741934,0.6265286814049901,0.6163720910675513,0.6125439630123372,0.6093138778272283,0.6208655563751063,0.634867416754361,0.6462624758731933,0.6580702897421616,0.6570412718357329,0.6395099785099508,0.6174967717380911,0.5876240187431033,0.5534779136266142,0.515160724501046,0.4817791273036634,0.4466115593119105,0.4096400033861526,0.3723139900727682,0.3355747407524682,0.2987180196796885,0.2602483935131606,0.2235000699641053,0.1860764365880077,0.1508133809246806,0.1138840274354709,0.0840665813704916,0.0907761164305985,0.1219125060354976,0.1548200000215805,0.188078422867879,0.2229211670209153,0.2559321290363402,0.2898269975760833,0.3227736549745329,0.3565000748956363,0.387375795183846,0.4198818129376674,0.4547847542368325,0.4816812812922187,0.5065528083119267,0.5286474604863375,0.5523970083239161,0.5725259536868489,0.5909616210272274,0.6088763843125541,0.6342809856384698,0.6637390349661879,0.7001099010324766,0.7381999388262489,0.7786343717133032,0.8176418275686043,0.8570641249346046,0.8900608455573277,0.9197326211795516,0.9615560122159826,1.0,0.9986155438344358,0.9659607900166072,0.9234046121711882,0.8794803475229932,0.8356426296549294,0.7965447120756944,0.7568423770527016,0.7129654552601178,0.6691385042963712,0.6305395087799707,0.5968325682260963,0.5567658857072456,0.5500140320384631,0.5823652748756442,0.6097917617695977,0.6477770186313895,0.6843424662245877,0.7094024455938405,0.7150830972969403,0.7121236889569412,0.701265701413322,0.6861898944527624,0.6862524443391388,0.6830814717511641,0.6858581034645946,0.6924714890855627,0.6894852582161713,0.6875839166814596,0.6845787481056923,0.6780826984436458,0.6709504092274382,0.6672097700722045,0.6571826118683021,0.6463880797943687,0.6417097850940209,No
16,0.2304465319028932,0.2413921105034602,0.2575228887520588,0.2793143649277347,0.3047671848856308,0.3281973409885821,0.3486633481487984,0.3741525857171985,0.4046196143819571,0.4347506005517205,0.4617067719156451,0.4936393301267099,0.5237911474907428,0.5507366365439414,0.5826709322396784,0.6148195276938744,0.6458561568443444,0.6722208721980383,0.7038459490931477,0.7359950303917788,0.7670723602661738,0.788432550222645,0.815198825027944,0.8424743190132218,0.8744686824675973,0.9066188333022348,0.9385981780021668,0.9657975696747592,0.9927606863239816,1.0,0.9773094607948044,0.9454093937448408,0.9141076846454992,0.8877778575811621,0.85638368411316,0.8242340151135805,0.7920838421619105,0.7599336692102399,0.7277834962585696,0.6956333233068994,0.6634831503552292,0.6314008400670093,0.6032223466281919,0.5744258193245892,0.5423084495835806,0.5101582766319106,0.4780081036802404,0.4458579307285699,0.4137077577768999,0.3815575848252293,0.3494090273152717,0.3183623526713006,0.2919737728979683,0.2603827034816397,0.2282694316593685,0.2037592929519296,0.2182056076415266,0.246374667769968,0.2680208569278739,0.2753731763534406,0.2753910152622965,0.2760363708720961,0.2619941846423945,0.2472003562071707,0.2283632848787533,0.2103916645003718,0.2160507716660413,0.2294999932084434,0.2424878246192956,0.247799966726453,0.2479334142551077,0.2479334284948404,0.2479334284948391,0.2479334284948384,0.2479334284948375,0.2479134169464509,0.2452314390333172,0.2431835010594352,0.2477951906706821,0.2479334124372614,0.2479334284948324,0.2479305291563478,0.2466938216026384,0.2451640443909466,0.2479031145821757,0.2479286033111885,0.2463232351530915,0.2438770403390791,0.2451962053077809,0.2406145747679957,0.2401741131551753,0.2347048027088949,0.2299093448998888,0.2220369854696264,0.2182805177583549,0.2193624774175402,0.2253291854757277,0.2308684247362504,0.2355201002312899,0.2382950808147952,0.232806142129337,0.2231718227202486,0.207205270192718,0.1885942559695121,0.167736247791665,0.1490187386010957,0.1257432401329878,0.1038095906401725,0.0811898420572461,0.0588013376720195,0.0394046261521903,0.0180908628412304,0.0,0.0035803389869677,0.0182313907929458,0.037007536338161,0.0555390456467737,0.0748810428729451,0.0998485494412257,0.1185783306071692,0.1346652226141276,0.1507403106475506,0.1668010928376375,0.1810781116216544,0.1968080724699936,0.208846934758113,0.2123475014157922,0.2230925800346876,0.2335539719337338,0.2467665051510179,0.266699505500908,0.290141632032965,0.3157178851437565,0.3415455106147214,0.3712603292894216,0.4020501261941007,0.4285576405075169,0.4602732944102521,0.4922842542155163,0.5196269404572342,0.5493122007246847,0.5814473384300691,0.6128593891139482,0.6391945573336479,0.6704730391955931,0.7026224028716912,0.7344427374444651,0.7610440934768117,0.7916513450502527,0.8237971921114722,0.855947349308543,0.8878736768979771,0.9148650942636554,0.9449779967605716,0.9761164484925386,0.986651022198153,0.9659694514703988,0.93424634890445,0.904809774058267,0.8772532362555505,0.8452015192124456,0.8130847973219484,0.7853353310894529,0.7630482286387754,0.7314525615685386,0.6995025406208242,0.6725250046354463,0.6424206366743976,0.6102781087041809,0.5781279357525106,0.5459777628008409,0.5138275898491704,0.4816774168975,0.4495572772299809,0.4205289207043587,0.3925769706622668,0.3605027161258514,0.3283525431741809,0.2962023702225114,0.2640521972708409,0.2319020737037782,0.2003763501406386,0.1905210619421908,0.2160141508096318,0.2408530609619601,0.2613737150767576,0.2699790577385821,0.2693016328741786,0.2621279007994446,0.2488355964185111,0.2277794578640497,0.2085382151200039,0.214570189771994,0.225898513613789,0.239760884061738,0.2476856334826485,0.2479333888053223,0.2479333997123514,0.2477604057108764,0.2441976269459813,0.2471694431340323,0.245376249834698,0.2457621132344631,0.2430668917124516,0.2441885629813391,0.2405925039700718,0.240507410495151,0.2403375308132838,0.2353592016320751,0.2333470061937201,0.2380541279961865,0.2341100172670922,0.2329669352864858,0.2295093901867495,0.2322600439154263,0.2275158292534713,0.2250980081312017,0.2192817892087935,0.2181172167195801,0.2136635384902026,0.2108082459202815,0.2086928140977868,0.2093552482480523,0.2167110132833878,0.2182253291180595,0.2180700736868608,0.2129332285663576,0.2041011643931292,0.1886285449224714,0.1705290063115725,0.1514467957629175,0.131610420831262,0.1064309044844205,0.0839989511286749,0.0639506749297402,0.0419418691740105,0.0250567412725419,0.013810426977078,0.0201893945029549,0.0388050023300321,0.0572798227553112,0.0765506654081364,0.0973151774336646,0.1143726671888725,0.1331672267335881,0.1470939006852021,0.145035245469848,0.1564743941290409,0.158864847585741,0.1628543172059671,0.1750070337803353,0.1902137012166942,0.1968507865408026,0.2069905926948234,0.2107724593671371,No
17,0.4887487588530173,0.488391764155081,0.4816796067427775,0.4847757662739846,0.4827484066685377,0.4886126684489678,0.4887487588530315,0.4887447979814741,0.4868332711701604,0.4822617378759304,0.4864934978119786,0.4779036465651478,0.4691639882654803,0.4667045125785025,0.4602863524857012,0.4625907839323335,0.4739714129584018,0.4929067810789103,0.4967849745884416,0.5121602741548466,0.5211050472472354,0.5241100818494235,0.5357151067851751,0.5411139082551046,0.5207871261393346,0.4828659889188846,0.4400273571239892,0.390882911420024,0.3487074765496922,0.3022741370427748,0.252831294324872,0.20990611275287,0.1643285791355164,0.1147331589794262,0.0653460346858378,0.0329288423581843,0.0512339532878001,0.0918394196247429,0.1410054742876272,0.1906309587586669,0.2402313215102534,0.2859491972702421,0.3287398542223785,0.3781860985977447,0.4278115830687845,0.4774370675398247,0.5270625520108647,0.5766085462119963,0.6207021556265,0.6650530861736654,0.7146176918499421,0.764243176320982,0.813868660792022,0.8634941452630616,0.9131196297341015,0.9627031228925842,0.9999999999999998,0.9706306121832344,0.92114782130198,0.8725041492129597,0.8314123437620149,0.7832184960220412,0.7352698178498585,0.6941120314994806,0.6489098821170163,0.6075824858748875,0.5686315879119543,0.5318541700620489,0.5035420408539717,0.4829323539309618,0.4679454021065656,0.4637218803373488,0.4510900247662599,0.4319224638206509,0.4136318747386318,0.3970180784111619,0.3658933927947043,0.3377952287813472,0.3051023939202226,0.274019517613006,0.2425594856893893,0.2094807805216674,0.1764016850004921,0.1433720681081889,0.1190765858147839,0.1220889944427732,0.1451288358118732,0.1808174107187798,0.2156589969952587,0.2528381273656788,0.2922515647316803,0.3353434387309508,0.3729068431255138,0.4120708859433828,0.443581901525897,0.4771211652065816,0.5000312297190501,0.5101807013436306,0.5117303706041829,0.5151951289640004,0.5086498464555735,0.4974832631889812,0.4966567785596025,0.5061577660208461,0.5158977290431961,0.5209071653644244,0.5104741455020285,0.506913948677236,0.5106115205976107,0.5104523547293713,0.5036915542538638,0.5067229101181621,0.5058233661272669,0.5049946126596108,0.4951734337264319,0.4892713808017241,0.4991396058542172,0.5130610910271203,0.5276086849546513,0.5286558916493522,0.5312847595772572,0.5408956304148294,0.534796219248511,0.535689155313062,0.5042695405285667,0.463527324316539,0.4153702434263844,0.3741757951641178,0.3263688470068848,0.2772385349029298,0.2356608745212398,0.188433516317708,0.1388295301054558,0.0924237405786878,0.0512975094644685,0.0231336292947217,0.0461738861039831,0.0950290509908009,0.1444638099068744,0.1873891532613372,0.2329870284246646,0.2825840623374616,0.3322095468085024,0.3818350248549214,0.4312160548859025,0.473760844048211,0.519785619640073,0.56939017111862,0.6190156555896591,0.6686411400606982,0.7182666245317397,0.7678921090027788,0.8175175934738184,0.8667701475349918,0.889259159501804,0.8501350898996332,0.8083747160530688,0.7591605189003963,0.7134053243550442,0.6706503985647014,0.6252719846361274,0.5854695684369238,0.5480397490089173,0.5148541143958025,0.4909376519417683,0.471112397203814,0.4564911252514192,0.4478333215009658,0.4372991235795236,0.413499454646453,0.3943509673596324,0.3774295512235663,0.3510963171252692,0.3208536080889288,0.2855417538134903,0.2522953409737563,0.2192161082436032,0.1867546264985633,0.1565651041723188,0.1253496745686162,0.1039173284163295,0.1021065695457237,0.1256851916987447,0.1582266428737828,0.1953394421586929,0.2336536925672927,0.2725063924897362,0.3097802435598698,0.347045123496899,0.3843003042413873,0.4233120260383316,0.4522380879355325,0.4766957164514684,0.4947831910339231,0.4993352466551299,0.491215854422939,0.4799286858887248,0.4778070041683504,0.4778019608081514,0.477886393673558,0.4837782638551609,0.4939171074618083,0.4894581872970818,0.4913741193791989,0.4995146939573807,0.5070207130717432,0.5106335574120917,0.5135579637145922,0.520665827488312,0.5102023158301237,0.4907466455834697,0.4792728998404685,0.4891792344485095,0.5071998173675192,0.5185548371308799,0.5346357335274468,0.5432518266815918,0.5406940268370626,0.5374768704436059,0.53528444383686,0.5143554331363811,0.4728671262874415,0.4243379576783597,0.383225866237713,0.3351267232902497,0.2855088706435815,0.2383321523771298,0.1967323231347522,0.1520621737041023,0.1190106324874507,0.0792429841528301,0.0317865925108205,0.0,0.021540326303983,0.0699720534785763,0.112516508560601,0.1585412841524616,0.2081458356310082,0.2577713201020479,0.3073968045730872,0.3570222890441268,0.4066078240092248,0.451904673341309,0.4950989041530436,0.5445774288832026,0.5942029133542475,0.6438283978252866,0.6934538822963268,0.7430793667673663,0.7927048512384054,0.8421695657371757,0.8733341697515191,0.8393075096217018,0.7897916165166274,0.744619840743139,No
18,0.4307849144499238,0.4533847446735355,0.4882471534889607,0.5066265904858611,0.5116447794800074,0.5159172562530565,0.5004560381756042,0.4622495543097451,0.4166041969274283,0.3685223264646287,0.3253831255677424,0.306316341317602,0.3023214407613563,0.2878085187196231,0.2896405720407768,0.2667433249784334,0.2192771557068913,0.1986563675989363,0.2266859333064808,0.2470311569078247,0.2261366092802952,0.1868712932597915,0.1471818962248385,0.1415683833945222,0.1360995378160705,0.1141638393768125,0.1233280915473369,0.1384685072827927,0.1152749858946891,0.1238119449036907,0.1713331230157975,0.2247182543601025,0.2781368680455938,0.3315554817310846,0.3849740954165763,0.4383927091020674,0.4918112401443404,0.5448122062353138,0.5910384596385925,0.6418045531772292,0.6952129672053915,0.7486315808908828,0.8020486136567293,0.854285944862281,0.8997652796555815,0.95202766085535,0.9999999999999998,0.9859666215695192,0.9335690019633148,0.8837714534306411,0.8367731403539251,0.7835621313156389,0.7317442843302395,0.6861916993684147,0.6400374007925587,0.6040083622879362,0.5587637863817656,0.5150832526608411,0.477719429781311,0.4483983370938238,0.4291588929991601,0.412729587559653,0.3990642161047002,0.378551737712816,0.3521011178376758,0.3252669507480754,0.2950753189747017,0.2637689841501567,0.2247158683920342,0.1849040623724125,0.1471859587601751,0.1149569525888412,0.0990235167157287,0.1108655908278763,0.1430372967952158,0.1804539214859726,0.2161575338337278,0.2518009346553906,0.2890334066142588,0.3227194545398499,0.3480256192447424,0.3623820757136289,0.3583613478941112,0.3459411087455848,0.3355482601570323,0.3328567000359306,0.3398758207065229,0.3511366320776015,0.3620582177365627,0.3677861946369103,0.3764953010427672,0.3836190339800853,0.3839468143842193,0.383836425421947,0.3749942415736549,0.3449731771014965,0.3269554990454195,0.3311249356383288,0.3598885982626181,0.3868692672515628,0.4081290304349423,0.414641277973687,0.4091477190087016,0.3735425620737957,0.3273683195380095,0.2818315264499416,0.2350843674311211,0.185645678580429,0.1340932704609987,0.0884207634643414,0.0362291183587795,0.0,0.0127758129768553,0.0555701439027325,0.1076099497123541,0.1610268303505597,0.2143340426959958,0.2623582441777916,0.3110746326870408,0.364428474768393,0.4178470884538838,0.4712657021393756,0.5246827349052212,0.5769200661107736,0.6223994009040743,0.6746683382758256,0.728085960242699,0.7815045739281901,0.8348259475948965,0.8719075211344023,0.8368604947915095,0.7835621313157188,0.7317442843303208,0.686136168068116,0.6335765604134473,0.5813081596075407,0.5358318201369461,0.4851995132296118,0.4414459471882028,0.4006424818639285,0.3646071856016282,0.3409375408043398,0.31924944556239,0.2973790125327318,0.2733481914181985,0.2525106278577194,0.2267192637103456,0.1971352142432876,0.16458265952238,0.1316556421615689,0.101096917342504,0.0727065993449247,0.0499194111099734,0.0522334327521136,0.0747629778874667,0.1068480860701539,0.1451063453766363,0.1871626307034022,0.2320208237736127,0.2703291476199672,0.3072373101749273,0.3427431292972065,0.3718996249293569,0.3888917833467415,0.3864633907701678,0.3762739871647738,0.3680348770119981,0.3597989556823,0.3645341709404768,0.3765154282999119,0.3965026038136656,0.4134650181191064,0.4238477662976394,0.4326451508780715,0.4355052756721336,0.4419357759382396,0.4455567584478417,0.4455788677761905,0.4428714522268551,0.4211730997980876,0.3923100941963231,0.3655302576045873,0.3480787460128416,0.3697666794991434,0.4016470620726469,0.4216902444493118,0.4367525585049974,0.4436183729686764,0.4297058956755275,0.3967040586988855,0.3515245733661054,0.3021025422167012,0.2565747978567965,0.2060018839872703,0.1603304357333574,0.1076098119737372,0.0564978630218981,0.0405732868652588,0.0754180972251763,0.1281539475043762,0.1815520114140716,0.2316891499624083,0.2784091661524106,0.3315554817312531,0.3849740954167426,0.4383927091022344,0.4918113227877263,0.5450874658050144,0.5927607767649274,0.6418394620502621,0.6952129672055585,0.7486315808910502,0.8019077239083379,0.8495808420340756,0.8972550331774387,0.9051629598447148,0.8554815133932456,0.8050413079096141,0.758565695477109,0.7054867417005692,0.6532178318765569,0.6077384970832569,0.555585600555788,0.5072600076235307,0.4625126802784172,0.4179690849174164,0.3781971235571979,0.3526173119741009,0.3370977221571978,0.3170290376751103,0.2910080497277079,0.2676673879074638,0.2443890063588945,0.2150463821476511,0.1874446967193512,0.1552838009981474,0.1241803173989215,0.0980638631317145,0.0814418661006506,0.0853837148073526,0.1112081014135049,0.1443521114834576,0.1823490366683793,0.2202398473827334,0.2600238057668436,0.2978886851733706,0.3361564050263081,0.3733473886705107,0.4013939296235205,0.4115132979839828,0.4005905225519632,0.3862682012893386,0.3773421120874625,0.3742010656631427,0.3815799974865113,No
19,0.5568083649777728,0.5568091495841488,0.5575546927473988,0.5629448506071001,0.5543744472315358,0.5486136772888149,0.5566254455219503,0.5717095076858446,0.5860175203728538,0.5803197206843241,0.5491382694022625,0.5105404294726071,0.4641643503810325,0.4111593387752105,0.3576049958659378,0.3062206241483297,0.2588563162094476,0.2056900163658136,0.1521263719342277,0.0994240212209055,0.0527922172713238,0.0205657877927958,0.0483970270898619,0.0980157128236988,0.1393476081323353,0.1859716373812988,0.2335929067447909,0.2868645648319173,0.3404293338578398,0.3937569021936155,0.441767986941478,0.4923599422339221,0.5458989334836862,0.5994636442501972,0.6526780417142949,0.7002272961470045,0.7513815061677865,0.8049333021354553,0.8584980937368988,0.9120005716319076,0.953242957155194,0.9303864943469876,0.8793738909103611,0.8260404453758533,0.7779558289755001,0.7274531418708957,0.6745241477810476,0.6274986109320463,0.5778932706014345,0.5329031906389016,0.490440352969348,0.4544169262547514,0.4210857163403333,0.3948960908349751,0.3663237410723859,0.3355289588781066,0.2980370521279248,0.2607577815154737,0.223765606143074,0.184597537717195,0.1428342208380356,0.1049769535349308,0.0654406243362896,0.0291937111246292,0.0,0.0074524962933915,0.0417423417167075,0.0825915253987875,0.1265158554948388,0.1719230530569141,0.2181590026693266,0.2700119544462739,0.3169649587656887,0.3599356419179488,0.3928210495636165,0.4341268528196439,0.475686495396041,0.512210492733877,0.5393996141215763,0.5591582579089026,0.565155717087581,0.5568713978333276,0.5468488645859181,0.5400355644391458,0.5438377119130143,0.5502725344642238,0.5612392265874345,0.5655898620998833,0.5687729399731752,0.5687399203618847,0.5737465606513753,0.5736503157678962,0.5644335192778643,0.5511140392940584,0.5408773838603947,0.5479853669345757,0.5677135700241008,0.5885637735110752,0.5948978204195344,0.570148335524128,0.5235877227591094,0.4702050580933036,0.4166402664918597,0.3630754748904164,0.3095119380810861,0.2568687301528741,0.209942172798382,0.157603165696368,0.1042114254227092,0.0593596626583091,0.025950873494435,0.0272278834395132,0.0731269300419571,0.1209482544016601,0.1742544141486545,0.2278187000156118,0.2807595809585618,0.3278595943079762,0.3797296929353798,0.4332887828004227,0.4867983818947202,0.5365203928286456,0.5853048150726546,0.6387583598507479,0.6923231514521916,0.7458782211017599,0.7973982316512299,0.8446994551959212,0.8977929294974846,0.951350212291778,1.0,0.9890264660249908,0.9368882169711462,0.8881039670466139,0.8383828111221073,0.7856839029789592,0.7387358037628377,0.6865289028446248,0.632969279448678,0.5804598444314045,0.5357681488019378,0.4975477989555025,0.4624601589588394,0.43563383782536,0.4077568777913319,0.3759316438589527,0.3425628978506482,0.309223603339762,0.273638249315807,0.2355034577374347,0.1971763752235203,0.155799221226356,0.1121741148606955,0.0749083651572298,0.0425524872304914,0.0322247573461773,0.0553991806003996,0.0994026926056094,0.1419819135116674,0.1878275539219295,0.2338501342346043,0.2799045753867447,0.3258931185206289,0.3707481767873953,0.4153448756364629,0.4577944912103563,0.4964091102919482,0.5341812691607412,0.562323728833671,0.573168779427916,0.568658877147454,0.5594720350336465,0.5499537984424571,0.548081180154404,0.5518909259695525,0.5544654506173256,0.5512362964598295,0.5575788465280916,0.5645044673607159,0.5655280795823309,0.5612841111598953,0.5513572929440808,0.5495666902419295,0.561451360468597,0.5776146533403926,0.5941133755225029,0.581210607681324,0.5393105888367863,0.4886538445410139,0.4410238637464539,0.3877896613798114,0.3342321376269156,0.2825276277187617,0.2353414469228315,0.1823198311075083,0.1290286175588474,0.0814569235114989,0.0462798173576605,0.0695466249572719,0.1215186035945073,0.1745004088220153,0.2216463781429057,0.2734281627867087,0.3269864550663611,0.3805512466678039,0.4339625940648063,0.4824304985574154,0.5324936768324257,0.586020823718128,0.6395856153195726,0.6931406849691398,0.7446606955186094,0.7919619190633028,0.8450553933648645,0.8986198987669528,0.9512105566353716,0.9672082521637604,0.9263229436976708,0.8744177797705815,0.8212063177601644,0.7736652089740413,0.7225240724269769,0.671722015815107,0.6243797047854028,0.5776113096278207,0.5321567330968503,0.4915058654687244,0.4539473537174939,0.4270253096240618,0.4009978514874156,0.3708456994000274,0.3362343445953412,0.2992543150544103,0.2637365199137659,0.2254931945122721,0.1845500887433583,0.1452804591555162,0.1076023382844636,0.0687714979465458,0.0385333324294929,0.0368000213017375,0.0671698292950883,0.1049621120655842,0.140341389034221,0.1819766403038175,0.2300255598136199,0.2798436279977275,0.3259052804787666,0.3717775019170247,0.4157106508197395,0.4578113468685457,0.4974935832063593,0.5333666180816269,0.5614647651949772,0.572535213030052,No
20,0.3278600882380205,0.3211614357359269,0.3225838619726824,0.3071340680850545,0.292972705803463,0.2985426465913394,0.3110719684490894,0.3165732142568174,0.3138446072973264,0.309018312205183,0.3147594350601148,0.3094354836060371,0.3068665971972473,0.3043418279628378,0.2978098531623692,0.2885217948348924,0.282770031603365,0.2781110641332882,0.2821271252943216,0.2917779901310495,0.2992768764532949,0.3039628406129431,0.3063023901995385,0.3040070698767962,0.3005343613819378,0.2854009594992961,0.2666739053341167,0.2460337993780674,0.2205914794825363,0.1895273582443204,0.158818885998212,0.1284260093614178,0.0983434998788532,0.0708780431141165,0.0425828342793794,0.0165038503572365,0.0,0.0175294198505835,0.0479472408301555,0.0763884643370693,0.101867045839108,0.1256438126873607,0.1502359166020088,0.1734936607969821,0.1935853116738002,0.2146106709230344,0.2327278198679829,0.2481677288810042,0.2618985023179634,0.2741783150392265,0.2897641914648896,0.3129077940348927,0.3383734745733604,0.3693868533615971,0.40230090291525,0.4352715379996188,0.4713661665006723,0.5046165520157135,0.5431578415339546,0.57660398160825,0.6127054309840914,0.6516145535155149,0.6886709282518175,0.7213733829706765,0.7599196770166841,0.7982447845451845,0.8305985860130711,0.8682223148793924,0.906655296039616,0.9391660517700442,0.976307921863419,1.0000000000000002,0.9824638263161248,0.9453160471079352,0.9121429518876918,0.8756973691178176,0.8367784420525373,0.7978500906727741,0.7589233825866215,0.7211663553465832,0.6888395901592528,0.6506206521105327,0.6116927180490317,0.5727643666692679,0.5338411123481992,0.4966809221017849,0.4640414276350104,0.4255353234611705,0.3866069940455257,0.3476786426657623,0.3087502912859978,0.2699710032771991,0.236243465909993,0.2038581730902342,0.2079169024578095,0.2431870618989302,0.2755180457065485,0.3108263874854464,0.3352513793645786,0.3420572596981059,0.3405555274689489,0.332627181231593,0.337221918852165,0.3387511980697248,0.3191670308207028,0.3046628482458731,0.3137168900999179,0.3265447687924498,0.332943053962921,0.3267829074141957,0.3251737232982732,0.3251696935792552,0.324483485741643,0.3178950507695075,0.3132564427089135,0.3077637049855977,0.3008571922510665,0.2937107560634342,0.2987139767960842,0.3083847560077102,0.3160314462028233,0.3166831593675583,0.3151778337188917,0.3075643843115141,0.2935500513161642,0.2732879214589678,0.250004186591557,0.2236120294946988,0.1911577468023171,0.1646192937807507,0.1365769148959206,0.1073946954615203,0.0786495661844612,0.0553303902057853,0.0509275190765252,0.0724598168775456,0.1006742899570805,0.1254121221162334,0.1509564775461158,0.1743046436412583,0.1955467074330983,0.2151594428382774,0.2389635402525727,0.2539121532906094,0.2682074399493854,0.2773784786420576,0.2881612661720627,0.3085516715338912,0.3319945564938544,0.3596212892712624,0.3888590061675119,0.4221771752975336,0.4576170476755508,0.491536805052458,0.5294198913128652,0.5616925839390814,0.5996022757458654,0.633589416484778,0.6691193564619373,0.7079983692512819,0.7440846254100213,0.7737050865700537,0.8003301023164353,0.8381472407568784,0.8719539278699038,0.9076722898416348,0.9454698454860716,0.9651501066580892,0.945687614751691,0.9143378948253396,0.8767030128157289,0.8377776148982305,0.7997041448980091,0.7674285516100434,0.7294752980846895,0.6905475836643791,0.6516192322846146,0.6127635923079522,0.578354906676239,0.5432823978374117,0.5043902110406362,0.4654618596608733,0.4265335082811092,0.3876051569013452,0.3486943752830274,0.3127863173978173,0.2791594539030484,0.2403761356573674,0.2014477842776036,0.1625196141018219,0.125013722217405,0.1229430960529738,0.1587833905444089,0.1911543357812319,0.2288555214532783,0.2612764216404613,0.2971566993935266,0.3283445506363884,0.3486017540235953,0.3503539065514089,0.3442836524278381,0.338117375111947,0.340931849592808,0.3293737149020737,0.3109718858860602,0.3157051441109619,0.3248383910406132,0.3251601643309463,0.3229178517009714,0.3169652387938371,0.3165366226192752,0.3113366597163312,0.3067843328378001,0.3002364943584747,0.2958945056791902,0.2841262122212837,0.2819958363828794,0.2791333937412175,0.2842412792891864,0.2959037802636066,0.3033299813224683,0.3010122600659906,0.3031311361974469,0.2951979708287719,0.277404669440658,0.2579399862090488,0.2372419564274914,0.2093637088541482,0.1776726952268079,0.149940404819014,0.1208449366900092,0.1031833012309053,0.1234561536599478,0.1468490480051409,0.1584274540797958,0.1411245994139065,0.1133164615160533,0.081008151305925,0.0673612492575732,0.0736777225214708,0.0582518103950902,0.0518327172101131,0.0495928403935597,0.0258150762225717,0.0070940259669027,0.0232405758110343,0.0484257883699665,0.0733021336764561,0.1013946346150462,0.1241095271711152,0.1477354055349213,0.1695129332330294,0.193505339653772,0.2111885870491803,0.2275611088545148,No
21,0.2295131219504171,0.2423669482774175,0.2661129520932292,0.2945005124664213,0.3262163757842806,0.3599933275020088,0.3938575474273265,0.428975316538756,0.4626524211066183,0.5001004471656907,0.5330022818740157,0.569152119780068,0.6070194429947073,0.6437657748560546,0.6763306137547738,0.7136451782152278,0.7515220222825119,0.7890360784761732,0.8217951071968734,0.8581504159974802,0.8955639283698895,0.9282272309140622,0.9643883441245912,0.9940118757003678,0.9980379552231852,0.968779929294229,0.931179085344559,0.8933017836100163,0.8557617520273333,0.8229084559059825,0.7866721006037776,0.7488009390365129,0.7109234434347396,0.6730459478329658,0.6351684522311918,0.5972909566294178,0.5594163393608351,0.5227201787863367,0.4901328082708143,0.4527899305030991,0.4149127394176841,0.3770352438159101,0.3391577581923044,0.3014125330235098,0.2677397134183268,0.2327471149250619,0.2120804257274091,0.2361488187163964,0.2597955710569055,0.2758226600820181,0.2737199478419665,0.266521981297761,0.2521574244504112,0.2370365709024333,0.240694872323969,0.2552297929628262,0.264013902451041,0.26337049744376,0.2581162411220961,0.2574207108695034,0.2526582779539543,0.2464348580474833,0.2413865028518225,0.2367824356528447,0.2366282612737664,0.2398713024755843,0.2471781755624189,0.2471052186565236,0.2432646034254502,0.2358186635840511,0.2204784471440748,0.1964915025115499,0.1710612226170966,0.1434266773393753,0.115021470615835,0.0866077703915879,0.0582187193380309,0.0310353248731465,0.0078074577540718,0.0105709083700449,0.030672711570857,0.0553750597769723,0.0806253702614503,0.1054914310225596,0.1299799103712851,0.1518635741774276,0.1706060018431923,0.186511294462851,0.2016559747149631,0.2153321835074191,0.2268734017738702,0.2418508392845062,0.2648171791819669,0.2968846397135367,0.3327714025838644,0.3656690161063609,0.4006410217353628,0.4342645659057085,0.4719033938823451,0.505773141052339,0.5407838267543361,0.5786268427944228,0.6159908497443576,0.6485994563264992,0.6852533275716626,0.7231219252271792,0.7594301270061001,0.7922308223247327,0.8297511913864779,0.8674610527472577,0.9008791706002068,0.9363806229502152,0.9721395327535118,0.9985602345744098,0.9951006583476534,0.9660752579780136,0.92870507363747,0.8908373035232671,0.8547815907237037,0.8218069786909261,0.7842044994696171,0.7463270822845054,0.7084495866827314,0.6705720910809576,0.632694595479184,0.5948170998774105,0.5569396042756363,0.5190621086738625,0.4811846130720889,0.4433071174703156,0.405429621868542,0.3675522538190037,0.3300145354740782,0.2971674276824592,0.2609242684979986,0.2242993009807823,0.2134448800346748,0.2425943252769071,0.270349221329105,0.2777991028419424,0.2707133275653932,0.2575999309029302,0.2394562642484614,0.2280571417513524,0.2408448350827681,0.2535957226221705,0.2603971972259915,0.2618821685025068,0.257738114302759,0.2569147310745026,0.2515521440938837,0.2500102380286948,0.2431010928664014,0.2369228466587538,0.2365934978278865,0.2379979184502589,0.2431794484380014,0.2435538769672312,0.2399494961975916,0.2291048970150331,0.2132224073835591,0.188229556628463,0.1623392322408774,0.1345658963731788,0.1061542768033427,0.0776328291276039,0.0488126505718102,0.0228732728634403,0.0,0.0077235266768743,0.029161497733624,0.0524567392259222,0.0776024247977068,0.102845594263093,0.1270308268493691,0.1507990471418652,0.1708450373447843,0.1875800974060439,0.2052330980559329,0.2174235535804742,0.2298352653370377,0.2435714996595228,0.2658501438524594,0.2938594447523526,0.3254883521541829,0.360864769121479,0.3987054432437653,0.4342467316455884,0.4676372715309289,0.5053449519133524,0.5424642101091228,0.5749433254748986,0.6119705548962082,0.6498339515843923,0.6855578146997414,0.7187885989347118,0.7564699326496067,0.7943183997073142,0.8293621638552289,0.863206144149901,0.9009360292869136,0.9357217342731968,0.9696928913959326,1.0,0.9980213784832476,0.9672295240807728,0.933156868565708,0.8958927935607595,0.8672488612653153,0.8346769988473159,0.807069854257588,0.7733171107453716,0.7406142797186075,0.7031443556554546,0.6652670427128515,0.6273895471110771,0.5895120515093044,0.55163455590753,0.51378473036011,0.4786062053549995,0.4448984367159219,0.4071338342975708,0.3692563386957963,0.3313788430940219,0.2935013474922492,0.2557340868693663,0.2308603570748695,0.2526995718100981,0.274526774346473,0.2784515286576696,0.2714684734191257,0.2534237474465799,0.2390042744484439,0.2455057922652241,0.2597458052027572,0.2645676731826689,0.2646259101597934,0.2644482339988221,0.2598857042115476,0.2560076460806937,0.2537764007731711,0.2494337091676151,0.2396455756437532,0.2366187317645243,0.2379585128356713,0.2431643825659952,0.243587002222573,0.2416548087638965,0.2336381794440336,0.2173630831317514,0.1969089042786005,0.1721671149874213,0.1469034712256915,0.1204585287937651,0.095705731191618,No
22,0.1984305749197457,0.2180627015582805,0.2381460267977355,0.2147063433551481,0.1824748325764378,0.1486227030303482,0.1141490831233502,0.0796504960470635,0.0455901889806796,0.0171905801676071,0.0075794867862153,0.0243830908036472,0.0531224683185505,0.0814551169264987,0.1208095501482902,0.1612612539968643,0.20614510585842,0.2484582512308704,0.2887775000304728,0.3286978022106031,0.3674041447689973,0.4035476677339484,0.4326881496904202,0.4462732210397899,0.440948435963695,0.4391581479885449,0.4374106903213426,0.4411555521409771,0.44732458931991,0.4481390855366771,0.4495850994017056,0.4464518502790577,0.4467683829913156,0.4480487253434901,0.443444003157132,0.4258177129224327,0.4160332821569625,0.4192443909107348,0.4394520807972963,0.4609902689758189,0.4567100186157995,0.4348605371272735,0.3949804076627008,0.3512571319980819,0.3030118331732576,0.2546495224821736,0.2083287039033996,0.1663250136569452,0.1336671074715272,0.1444376485078242,0.1848850982205145,0.2300135125371583,0.2783491524754309,0.3265983637339209,0.3704188212201564,0.415404469539989,0.4637324211744293,0.5120931574397831,0.5583678880624554,0.601102728363968,0.6491153252246924,0.6969059738524697,0.7392944442355152,0.7861297181334796,0.83341214260988,0.8756457734810392,0.9231396044754568,0.9709490657887678,0.9902667496988892,0.9499345587282416,0.907190031336084,0.8609616065712418,0.8129151808992974,0.7700852089549624,0.723949152699721,0.6755899334575686,0.6272180262126048,0.5789469597721733,0.5349623095388378,0.4904190117699127,0.4510312075107097,0.4198857788420129,0.3822401533078245,0.3473581950202005,0.3188322618969053,0.2974090650646868,0.2728473840375804,0.2452375168574461,0.2158936693801063,0.1858075073557061,0.1524025906013535,0.1160004265904806,0.0781483185363847,0.0448491384607138,0.0203479977594469,0.0147118306395845,0.0380413862888011,0.0739719774875673,0.1143241740398179,0.1528573697358368,0.1936522994448768,0.2347315935244942,0.2745494427507644,0.3132984192684651,0.3530297856162405,0.3901769854104056,0.4212310262686591,0.4375664978686904,0.4336251886176379,0.425215934257769,0.4239520583349105,0.4301940096672754,0.4393983687356833,0.4400068938980517,0.4400207502392381,0.4420954349065138,0.4402250042321198,0.4240061963748591,0.419297239869121,0.4244851241970786,0.4397185511025234,0.4581047106838736,0.4566352701861444,0.4339767000385777,0.3921014168795682,0.3482532126300881,0.305738339369541,0.2594371861487337,0.2159228602418939,0.1710071273374309,0.1325539966835125,0.1321663748277757,0.1705804021304664,0.2172388734487511,0.2656046486612851,0.3139701888334427,0.3606840549529775,0.4031176450522207,0.4509881840824501,0.4993596612842561,0.5473464450077967,0.5899588967778715,0.6363750611584151,0.6832961672970608,0.7254265104657964,0.7654350944611277,0.8047905328911935,0.8401919520790537,0.8786512720491537,0.9263489855042472,0.9744351918484692,1.0,0.9653951129797322,0.9221391398295596,0.8739937845428019,0.8283268774963624,0.7851081464972822,0.7369607405177714,0.6889989554936493,0.6463724595631295,0.5999974446459426,0.5552940688426402,0.5115775714997786,0.4690208207493898,0.4263055171591297,0.385988592283389,0.3485587820558444,0.3203743710160516,0.2961892118580012,0.2740797606333738,0.2457515061852346,0.215059808756526,0.1839378305733103,0.1500418855651499,0.1138772371113252,0.078880426349682,0.0444260045717549,0.0145901737707959,0.0,0.0139880109071643,0.0455233470914637,0.0807101889713246,0.1204693924732112,0.1640880567114737,0.2090217020134237,0.2494674526811913,0.2897790473933335,0.3298557391234731,0.3667773958769871,0.4015573418421241,0.4255964780022849,0.4343893814819901,0.4261645796752595,0.4171081621471915,0.421181435655698,0.4284066017617782,0.4382206924218095,0.4409210051223013,0.4436956683621802,0.443761505746187,0.4397412930081854,0.4229540388220021,0.4139008307919083,0.4236503039483903,0.4354402352461013,0.4557441652426808,0.4677413171918905,0.4562091069095053,0.4230931905387718,0.3773643662343335,0.3290096324943108,0.2811553489497129,0.2387561119437116,0.1920704816875467,0.1477816616487774,0.1059001150743181,0.0903242341581755,0.1233517262451415,0.1712719394678497,0.2164896234678193,0.2601011940790951,0.3083193946122244,0.3566913018571884,0.4050610168095339,0.4523618383561734,0.4945931743360723,0.5420758252864291,0.590365395881854,0.6347320868843915,0.6791563570158421,0.7265145257916301,0.7687238308154283,0.8160988399597249,0.8644692007092205,0.9127799325850848,0.957006305986396,0.97513109651394,0.9355687682586912,0.8872249731056696,0.8388530658607052,0.7904814599932242,0.7426459327781969,0.7002863339567049,0.6534646099958363,0.6053139665192169,0.5621428117656051,0.5169227400749146,0.4746815707092591,0.4331863494850778,0.3920292331148547,0.3572555061183651,0.3282230687441014,0.3051413130184228,0.281175114475096,0.2564329053665057,No
23,0.400640504129101,0.4038203879281681,0.3980702549553621,0.3845345814789807,0.3636956360469574,0.3409857606436655,0.3086137076922088,0.2759377408556689,0.2390204834832914,0.1988118888060681,0.1611377303025796,0.126463032780453,0.0927179951419454,0.0656534370799677,0.0372703824864886,0.0367347789116048,0.0659756622067748,0.0965632999931449,0.1274739424696542,0.1535593284596561,0.1797787474266801,0.210881818751347,0.2322197058303479,0.253981340226497,0.2759215175741552,0.2919225096349851,0.3018375356766121,0.3208602591053153,0.3515849343369612,0.3903159116034784,0.4295890277258396,0.4751969994570821,0.5171773872277983,0.5598881883944469,0.6072098303497746,0.6575662992263227,0.6985726971237145,0.7493465840938522,0.8012371862838858,0.84810051459999,0.8916494157113395,0.9433650745427063,0.9870773905339358,0.9999999999999998,0.9716830687214284,0.9299358766242384,0.878372152603869,0.826468309598994,0.7787873490945445,0.7359499391623634,0.6842989624201776,0.6323789079398152,0.580460388518665,0.530395564815547,0.4891752190008087,0.4383054370860961,0.3863856385107593,0.334467652484572,0.2865666788530248,0.2906646881774331,0.332307305227624,0.3707179821128445,0.3894662034641729,0.3906069248125943,0.4004444631261654,0.4127780106011853,0.4074967884390859,0.4038937086331986,0.4038879795894272,0.4041792023615713,0.4134509068195016,0.4174800790389719,0.4174949825621763,0.4174949825621741,0.4174935439929486,0.4157328549846382,0.4050046199300319,0.403882258062245,0.4013097717860321,0.3901960886025544,0.379175586959201,0.3768972560764008,0.384326621617699,0.3828141454891101,0.3941586673960573,0.4035761364340906,0.4021730834319401,0.3910422843237364,0.3762453539626798,0.3450060289051191,0.3170590080327249,0.2829285985662724,0.2482833095913388,0.213420175399013,0.1746199590895882,0.1310135020953218,0.0917224268673371,0.0545845589856117,0.0226361851907652,0.0,0.008164441029697,0.037132985276449,0.069637879870622,0.1063872329041604,0.1355248381439653,0.1663886768971798,0.1941361731234303,0.2200597555058399,0.2420761778551117,0.2650629777714794,0.2826879001339366,0.2957316908138174,0.3114448788788506,0.3350833483953022,0.3649751526643701,0.4046758870443321,0.4542963743721742,0.4952532798317797,0.5394985156489278,0.5846058474375206,0.6362753781373491,0.6790241345337671,0.7072290778849146,0.751431668459382,0.8032565676227044,0.8495792513827125,0.8936570742951877,0.9450465006757812,0.9826321119474816,0.9960146926063028,0.9693708561446808,0.9279574083847052,0.8763444671218659,0.8244434676529646,0.7772317440158549,0.7339717295795227,0.6822712521731715,0.63035119769281,0.5784311432124467,0.5266379024511492,0.4824625699993146,0.4362394786575312,0.3844106003352288,0.3385776222448793,0.3243452632809249,0.3625580780001571,0.3945305221982413,0.4127276471976733,0.4175813130466477,0.4251051309372509,0.4225994055753108,0.4175247193770868,0.417420515258416,0.4099694538982883,0.392334062647546,0.4009011981796979,0.4039221605431213,0.4098979335465607,0.4173781623424373,0.4174949825620901,0.4174949825620875,0.4174949182418708,0.4170104766465978,0.4068129804479794,0.3930134065390616,0.3782890726647923,0.3767268359347835,0.3832657307137188,0.3929702476198928,0.403288287315257,0.4038876797550548,0.4031799422449007,0.3878207241587825,0.3647188142728226,0.3355797226232495,0.3053734605441269,0.270789446718817,0.2362398161769301,0.2016089459002026,0.166962288603053,0.1321119147082623,0.0933533721313784,0.054494982020159,0.021822628031795,0.0220024028618321,0.0439486251772744,0.0765506479930917,0.1073545105732776,0.1389984249976013,0.1746758652024855,0.2063936447685652,0.2370046667250267,0.2595148845100887,0.2878249741520637,0.3061641863156732,0.3215158485210325,0.3346157336856932,0.3523099056694805,0.3781797509074451,0.4088190099772502,0.4487829224067063,0.4887460304836148,0.5282054973676928,0.5763640242343551,0.6173500875700191,0.6681847513916155,0.7201040565169594,0.7720241109973209,0.8239441407126817,0.8755078647330505,0.91759579411437,0.962850471477007,0.9855542587592908,0.9663914461878308,0.924239823091898,0.8802649827303128,0.8284798331352599,0.7765598147705253,0.7249313405063591,0.6821658424603176,0.6343926624604668,0.5824865637062031,0.5305665092258398,0.4787085737052081,0.4328209955893831,0.3883322847658117,0.3385688287839945,0.3081310077836303,0.3293183897805816,0.371025801611202,0.3991630530740788,0.4164053078487069,0.4174942178067284,0.4170622627452076,0.4074186824998083,0.4038898501861838,0.4015647823338188,0.3913086146275357,0.3999558792010662,0.4038737554004916,0.4038437437337301,0.3982785024989985,0.3903907466729051,0.3857351417748293,0.3695937066228378,0.3565435641366867,0.3495150697530202,0.3471840895722329,0.3369047850264197,0.3464536604585995,0.3611413732694133,0.3630653804746153,0.3630668864011623,0.3624461128741536,0.3521896625126068,No
