,0,1,2,3,4,5,6,7,8,9,10,11,12,13,14,15,16,17,18,19,20,21,22,23,24,25,26,27,28,29,30,31,32,33,34,35,36,37,38,39,40,41,42,43,44,45,46,47,48,49,50,51,52,53,54,55,56,57,58,59,60,61,62,63,64,65,66,67,68,69,70,71,72,73,74,75,76,77,78,79,80,81,82,83,84,85,86,87,88,89,90,91,92,93,94,95,96,97,98,99,100,101,102,103,104,105,106,107,108,109,110,111,112,113,114,115,116,117,118,119,120,121,122,123,124,125,126,127,128,129,130,131,132,133,134,135,136,137,138,139,140,141,142,143,144,145,146,147,148,149,150,151,152,153,154,155,156,157,158,159,160,161,162,163,164,165,166,167,168,169,170,171,172,173,174,175,176,177,178,179,180,181,182,183,184,185,186,187,188,189,190,191,192,193,194,195,196,197,198,199,200,201,202,203,204,205,206,207,208,209,210,211,212,213,214,215,216,217,218,219,220,221,222,223,224,225,226,227,228,229,230,231,232,233,234,235,236,237,238,239,240,241,242,243,244,245,246,247,248,249,250,251,252,253,254,Target
0,0.7034797544572515,0.6579328923565817,0.6248111364730149,0.5724615368420021,0.5521289427652074,0.606255130035295,0.6224709041469922,0.6179888273373453,0.6332495874926773,0.6172121532556134,0.6091803168705705,0.5925459477689885,0.5834954500648721,0.5833331396345565,0.6142161401586779,0.6265928579759286,0.6322595120646617,0.6574686999823585,0.6717147622929853,0.6517898478365303,0.6520299289314395,0.719487514305706,0.8092848694535903,0.8892831220867188,0.955961859589776,1.0000000000000004,0.9967262131151932,0.9580823310388182,0.9054511598402342,0.8592724268945502,0.8107704253091366,0.7767541251960348,0.7333225717693188,0.7359254724612296,0.7692628275460955,0.7024754131137168,0.6387805391128185,0.6916457720866549,0.6977395803097104,0.6722356927880235,0.6812491489453856,0.6546200708911267,0.6095789285974429,0.5617370000032316,0.5439152296686394,0.5896430202904122,0.6325404569786683,0.634655211718639,0.6268703522060428,0.6074109920223756,0.586779653761583,0.5694855367226439,0.5820493525579704,0.6012197676698805,0.6078779645463439,0.5900365256569251,0.6011325753007761,0.5864004972766579,0.5673963172683361,0.6226779306605921,0.7053728556422842,0.7881749257788271,0.8716325827763547,0.940261555028512,0.9796941244212972,0.9685591029413224,0.9272332298823716,0.8871539190780715,0.8606292430691549,0.8091192900519633,0.7597230562478283,0.7194211639373917,0.6922817427289281,0.7455159329064895,0.704597694839205,0.6089699454654505,0.6278077218258074,0.6942811195592298,0.7104799450730712,0.6677043618009706,0.6785302868497971,0.6643746538431716,0.6079837842657496,0.5569348455192391,0.5385443840920252,0.5747807535711638,0.6083166247014025,0.6062754893996467,0.5789736351028574,0.5608308716874517,0.5639107029417088,0.5853157013145229,0.6065731146962281,0.609861820891449,0.6060073589241539,0.6018991826876614,0.5857910811405067,0.5677979790603147,0.6197244486356657,0.7089040267857984,0.8012364791986593,0.8803977478803717,0.9451809724318454,0.9897613089588524,0.9858378794010032,0.9514631866349323,0.896351021843159,0.8537809401441661,0.8179921099697505,0.7828099597132527,0.7374178264878819,0.7096944645592145,0.7443741948855069,0.6798163268740143,0.6571124880008923,0.7253603965834317,0.7478067376293809,0.7264977697781414,0.7257689945599366,0.7000705344517582,0.6413330012070131,0.6138036281441663,0.6379069863773394,0.63532508986034,0.610151192911061,0.5247024731127996,0.4414841746805953,0.3314874586153662,0.1957871910018682,0.0658189035354848,0.0020012085053497,0.0,0.0376097721427601,0.1548377651315271,0.2812952798556853,0.3840230621190099,0.5092638768415747,0.580696000626022,0.6367578762633781,0.6970025670603337,0.7318581276737004,0.772395926055546,0.8076333141795753,0.8607535065887091,0.8987424221532465,0.8956250707696376,0.8411945510895369,0.7645389393265432,0.6846910034430302,0.5907067363038405,0.503032539988681,0.4777173593736505,0.5058070376255368,0.5251302800221267,0.5286881605760958,0.5326851557477883,0.5202861804780032,0.5002210529661397,0.4801654713257539,0.4762007403404538,0.4909229753031843,0.5178945788893881,0.5340620692497073,0.4954574034004864,0.4480745057152804,0.4409089388739593,0.4828783768009903,0.525232724568105,0.5795906707461547,0.5859404856136998,0.5887122053731546,0.5823664167480307,0.4938342900740613,0.3828790264061621,0.2997581719234365,0.3292630987161304,0.4427462873240504,0.5452508167422789,0.5656961201270074,0.6297910531746482,0.6638192571378361,0.703478352307052,0.7490684721594651,0.7969836313641374,0.8329017376763965,0.8794762905084119,0.9070501897392824,0.8752095821252852,0.7949230526950974,0.7109240810452948,0.6306599214618847,0.5498100191801769,0.4889226754037472,0.4829314838446374,0.5183036239430598,0.5108040864915804,0.5187052249862703,0.5111404285299637,0.5105412683353525,0.4927201961493832,0.4665706191697945,0.5005423428830369,0.5280321372378936,0.5354380454244647,0.555104289073681,0.563809425636864,0.5530552375627997,0.5093535093345136,0.4516914949351212,0.4371195339641436,0.4851623505555018,0.5396478171730679,0.5778952973061995,0.5962445713642572,0.5807018080738016,0.5873845758556153,0.5180697656074771,0.410674321447273,0.3390933618524943,0.3892917604416617,0.5132232088119699,0.5825197282271657,0.6372489638134993,0.6771993263168459,0.7243345527629246,0.7559999258103276,0.8071931745005982,0.8574256232146271,0.9020423982306656,0.9147326160258992,0.8616219224990993,0.7852144259346692,0.6998381254902015,0.6247271968801438,0.5648033545514228,0.5607161568761208,0.5901283576276,0.5832241926013793,0.5579326122626536,0.5372968244648555,0.534509693337252,0.5060600362713799,0.5007196601095432,0.5109116795140269,0.5413555259011678,0.5371966846960521,0.5497517979784727,0.5431192917150702,0.5231444832759462,0.4814547270873626,0.4526472254644842,0.4788112026855078,0.536227735816261,0.5731188862286074,0.6294128482483372,No
1,0.5095913295872188,0.5019655971365649,0.501800990545461,0.4988419971520099,0.4928240741930292,0.4907891721053392,0.4850309407039281,0.4947530088881606,0.4855184164631958,0.4817674985987406,0.4541248264355086,0.4173356567509074,0.3793129914451238,0.3447879266253486,0.3604919075992603,0.3854564078723235,0.4237430258257655,0.4387193486241711,0.4517025458989927,0.4594132021743986,0.4819669214281594,0.5394085422739816,0.6259749123204346,0.721227777380006,0.8112309603620784,0.9008410665853824,0.974613067922582,0.9422546160797602,0.8438341122670536,0.7463906326390108,0.6499538272091141,0.5578288298452927,0.4938806609111825,0.5268475876869747,0.5542322722113058,0.5449891412657117,0.507713446482891,0.4705484897408878,0.47965833220898,0.5233372821850018,0.5287845728702001,0.5289472582809589,0.5365265818572795,0.5380966424625213,0.5337894385223407,0.520828238956899,0.5127444138231354,0.5115468393181346,0.5112460186545746,0.4953376245292871,0.4901316177481338,0.4837294152496008,0.4789363083396787,0.4509618074445889,0.4075689023901332,0.3618189087913905,0.3630846697311143,0.3997317345479558,0.4226041054597873,0.4484081088949736,0.4670513079689655,0.4816176486031844,0.5007119640704629,0.5656676924389403,0.6472398318068424,0.7405325502461313,0.8361640589404731,0.9361825803291492,1.0,0.9768121304478647,0.8961049520420241,0.7897627845714719,0.692466395634415,0.5938337547095549,0.5279492107879604,0.53253262844557,0.5194772021504428,0.4905925977357084,0.4520931042017793,0.4158575486825979,0.4282577524946194,0.4554517493237444,0.4609480219736332,0.4446210840190261,0.4412783296591391,0.4275240717574391,0.4124675580056882,0.4109803583690814,0.4073716802400531,0.4047831130567929,0.4001192969880343,0.3933012468145378,0.389849382714416,0.3740936474652363,0.3455300504371559,0.3023765973614267,0.2501944652679904,0.2105848266765275,0.2081183542141778,0.2321406780098454,0.2597079733965963,0.2729238682251536,0.2693246202414348,0.2744974920356062,0.2911156085719217,0.3517479540604191,0.4365845259247107,0.5257813928503565,0.6243527265458786,0.7162634854673975,0.7611320484152477,0.7065010789858115,0.6076035228178425,0.5049955588223738,0.4051614208042515,0.3432006042449416,0.3321971363768772,0.333914392077375,0.2906151807279657,0.2330336555989642,0.1592467570832121,0.0547379889473851,0.0006807586519812,0.0119759162814765,0.0839930041319725,0.1901346247543065,0.241613950304516,0.1907859359006822,0.0885362575250412,0.0126463966106236,0.0005663710186727,0.0368550548596382,0.1110693587394697,0.1969151653467449,0.265871961560272,0.1971105086265692,0.0874578006609958,0.0121923035794799,0.0,0.0281568069534161,0.1215865768477835,0.2323332893131549,0.3089625048641808,0.2706125534945149,0.2252268691059593,0.1962644528775361,0.2080378310139612,0.2133521317190756,0.2049183790025996,0.1821432886377159,0.148755419577574,0.1372817039784055,0.1601483641853329,0.1981299006154775,0.2547092632338366,0.2991552723008945,0.3194845536965278,0.3308556015346604,0.3315679765246644,0.3404554522997296,0.3379370914835404,0.3417656343304371,0.3456241642631519,0.3589856077026003,0.3775763815735273,0.3758660645464631,0.3855191109168991,0.3637921078238819,0.4020873189484963,0.3867556019727187,0.3639720564927504,0.35164236126852,0.3832926632636195,0.4324093556312482,0.4556715759968885,0.4247649270233427,0.3435598186729334,0.3205246508470623,0.393014864534273,0.4725166141277697,0.5444074964084669,0.6358496646121035,0.7323617734091368,0.8062012780937771,0.7454514502314504,0.6522862096383681,0.5550541417078856,0.4757854578559581,0.4332814006575352,0.4101890121349636,0.39724970938282,0.3914041254263538,0.3802227416423291,0.344247106696756,0.3301754663084026,0.2966002392365792,0.2883462774321264,0.3122243166804681,0.3563780657292703,0.3998736178667235,0.4113428188202994,0.4164360755901661,0.4332177940287538,0.4296384150546584,0.4502160305891127,0.4445350834088515,0.452330915766002,0.4480251889174163,0.4712364639745767,0.4731203699072583,0.4662155368479261,0.4485357711810023,0.4593345441749843,0.4498204561727794,0.4360836228063816,0.4002118085142494,0.3872073148406807,0.39347313060953,0.4427179627682931,0.4817737982287577,0.4799634488043676,0.4136159960062135,0.3460974901504441,0.366944348199087,0.4524471051532388,0.5411318419310205,0.6308442399898584,0.7262772672385753,0.7314963896625759,0.6413140988553403,0.5486868936214715,0.4719407731424496,0.4247489790917527,0.3919936604741054,0.396497160076271,0.3797824479551597,0.3645417419603114,0.3372949515788037,0.3068764682760214,0.2820324255641759,0.2876149977793689,0.3116197941797574,0.3616532362945985,0.3991938176215375,0.415800611266143,0.4126601909389515,0.4267780523919415,0.4281363101585063,0.4298521156101076,0.4278978896183392,0.4273830492419419,0.4334537718149449,0.4152293745500524,0.4421799822341743,0.449747739431324,No
2,0.4949195022043615,0.5031471726099164,0.4859292215679209,0.4270593359391061,0.4436064510484803,0.5526797187692218,0.6438675246832188,0.7260591219613923,0.8279282178022904,0.9319478051781318,0.987727513990012,0.924800473275858,0.8263871227013904,0.7148793264965296,0.613218764889988,0.5512658515428797,0.5475065878991736,0.5463553045198095,0.5368671922672874,0.531181160376474,0.5301649038987604,0.5140243974031335,0.4820438698083795,0.4770343490149833,0.5059617932114309,0.5106231046675833,0.510898834189415,0.5125887606257633,0.5280529475040492,0.5367203500015325,0.526505309093138,0.545574048200363,0.5416592388746628,0.5440912205316204,0.5163333365286045,0.4982632599435241,0.5095958026864262,0.5117419031798165,0.5342574179282833,0.5467052746902143,0.5304980269020563,0.5168298375084857,0.512912858832145,0.4833753558053995,0.4097946039017404,0.3331280523249567,0.3815564881813942,0.4977070362035549,0.6056385157372133,0.7256900372993487,0.8376668472925259,0.9332644955786448,0.9327664906866876,0.8474680538522543,0.7481418014917312,0.6471454870329958,0.5722354837820793,0.5496363610921549,0.5606578691722861,0.5792191731998151,0.5748478869718561,0.5674822820404657,0.5509176074505007,0.5381311705576062,0.5056896478751867,0.5249703488095636,0.5478027600659825,0.5461327118616937,0.5333329021920896,0.557891571693176,0.5466410494489105,0.546559179800993,0.5384206958928353,0.5490264356961099,0.5437253588254585,0.5295176807393736,0.4973470073072268,0.4578133799160166,0.4448013357041938,0.4649424856917643,0.5033500940882512,0.5153756422936029,0.5150101124462885,0.5160211435437954,0.4826036243403595,0.4101659606164607,0.4214928748784659,0.5282338936013713,0.6393389588230662,0.757207264900984,0.8649333447243701,0.9731802870553724,1.0,0.9132519583425052,0.8066145710521333,0.7049133576969822,0.606748661741674,0.5488365844432073,0.5364822799682467,0.5298235464111021,0.5216495537304535,0.5243323485540055,0.5207694087596848,0.4853813915319374,0.4779511215020262,0.5094656151193662,0.5242881952446758,0.5118024155643544,0.5037675113539364,0.4873370311880789,0.4866942535529199,0.4973595596767315,0.479939600876218,0.4618556368146391,0.4561163472513336,0.4298758749019016,0.4218809292001571,0.4446296842429551,0.4700361094145733,0.4356386255345947,0.394597253682003,0.3542997940592407,0.2968074278884689,0.1807976958417283,0.0642369522491903,0.0109753684681708,0.0372297427517898,0.1420063823885433,0.2621783694408663,0.3400867746510037,0.3078149393967426,0.1961999617684218,0.0776884274886304,0.0088528795262212,0.0,0.0437875454755145,0.1548940140157935,0.2739599099050243,0.329441603492727,0.248230237550961,0.1275769237788466,0.0255578580653121,0.0003609669668365,0.0230647657244964,0.1211254994472792,0.2418745401145474,0.3380417888565969,0.3817389120386285,0.4042100161886597,0.4186484515977438,0.4233236713945931,0.4190914581451825,0.4228256961234677,0.4261749114238333,0.4341181890432191,0.4454268802763015,0.4085465006300368,0.3969549164000976,0.4230267634808,0.4565257075155484,0.4562157334412626,0.4640684960681134,0.4678388900376617,0.4665117879818692,0.4470398278232266,0.4822331039586096,0.5692578486179602,0.6779332662265447,0.714803789303355,0.6098471682227347,0.494316150075945,0.386527520836863,0.297428913913726,0.2908529227808003,0.358468154398448,0.4371147782083864,0.4549027651500315,0.4549603315972157,0.4388529909339715,0.395961446821222,0.3668837896841039,0.3784702339146033,0.4016328868899035,0.4356928272647122,0.4568968613467667,0.4726051533092166,0.4432311376004496,0.4473558612801747,0.4413079705434977,0.4361858315518176,0.4472035322655983,0.4609103256514957,0.4604324117551468,0.4412996012084771,0.4114276261156062,0.4335044423388288,0.4587989267712897,0.4753335197607455,0.4991492512505244,0.5048533645601161,0.500664930204985,0.4887624844305489,0.4682542345912237,0.5278398532917064,0.6191192898548703,0.7138863373700572,0.7097150069577887,0.5948677616887545,0.4837159637075974,0.3706173672081285,0.2673017972131388,0.2245565140927605,0.2800735368517109,0.3689932498065875,0.4301911681336281,0.4474419819500221,0.4592152167339658,0.4621625869811478,0.4577787607036114,0.4362329083642957,0.4257381808933131,0.4268379360873382,0.4626057090548947,0.4798265843650848,0.4759543199666263,0.4734007125047661,0.447656497993806,0.4591686102314152,0.4501692597866928,0.447650278879161,0.441174158805639,0.4399797773685558,0.4219605101835166,0.3928867281903017,0.4093567469206771,0.4234845978505319,0.4574402225979299,0.4489465116882773,0.4694690026623744,0.4752093933295427,0.469579816337569,0.4852332753536283,0.4680619551455542,0.5245173491260653,0.6202424654544512,0.7154990926237481,0.7030140757507377,0.5994692555090868,0.4921498998089415,0.3802368074665634,0.3157203198966236,0.3461092046827132,0.4123671888456508,0.4277626856171497,0.4231317825891438,No
3,0.6817222542429104,0.7319955018511002,0.7548770292240801,0.7633988984027966,0.7588879711550627,0.7765734024872737,0.7632061700755988,0.7488188523633466,0.747785134740703,0.74593278059421,0.7242495257746397,0.6922887800989956,0.6759487416296448,0.7059225151245561,0.7409225660375438,0.7711879168507996,0.8127801759882471,0.8469660373641403,0.8651152525141224,0.8867161883613535,0.9440874874263688,0.9321395022176646,0.8427537963903768,0.7420382469091509,0.6360173477692759,0.5267558638706662,0.4437973689014476,0.5171302623786689,0.6367265560356872,0.7544533633497763,0.8597393586148945,0.9700605293456784,1.0,0.9212310932572648,0.8602291851769959,0.8454950707596431,0.8276519385104124,0.7766580688953946,0.7495971685661345,0.7639832346818793,0.8035597399480445,0.8064523893831361,0.8016637353631837,0.7915810344385683,0.8005506693647124,0.7919946564805085,0.7895426860984975,0.7926263086093601,0.794189526290813,0.7847393787241259,0.7474790014691286,0.7043808867753127,0.7154457846943769,0.7402756702301252,0.7695407823698894,0.7924603006612774,0.7979899215199051,0.8055107227105966,0.7967394006797175,0.84431086366541,0.907792135271801,0.884860702872488,0.7962220640809932,0.6940586854765494,0.5890523767518907,0.4912701879286181,0.5287212807345747,0.6466282833212893,0.7667757497952246,0.8863195340252545,0.9697327406819573,0.9319895338179608,0.8458502615847379,0.8119618411809948,0.8023548008853845,0.7683432179283338,0.7250948791733127,0.6962926472016506,0.7272370565477377,0.7639551211921094,0.7572667528031465,0.7652942808397922,0.7834786355446051,0.7820168808032366,0.7564879377440952,0.762450493397369,0.7568804282558705,0.7591695489940196,0.7436633121094212,0.7074139987445709,0.6775399948052345,0.6546021883643838,0.6756656589038768,0.7127157256573966,0.7380340735498265,0.756762515678461,0.7831375307709267,0.7930408661789774,0.8262514574309376,0.879411396643683,0.8679959562570545,0.7781351857235315,0.6779168109183527,0.5718557201192338,0.4658531328013549,0.414707844310338,0.4845749661898511,0.5817529871613196,0.6998389134926963,0.8052190047728578,0.8981433571186104,0.8823789652648508,0.8205815237251382,0.8159863892134265,0.8048324971148424,0.7652763182446849,0.7093934315639698,0.6845156952330367,0.7225170375512255,0.766752830033965,0.7729755043444362,0.7674005444137522,0.7665058227631021,0.7473015807121937,0.7077935892114242,0.7066471594054895,0.7054784589607466,0.7036174529168893,0.7098763022356089,0.6630980260406059,0.6182534594454925,0.6238546428509508,0.6599261951326576,0.7103632889865015,0.7434199639807915,0.7525671375741507,0.7451242614105089,0.6666196238369131,0.54719533991172,0.4271731279562667,0.3156039673818993,0.2060423836867331,0.0886194513728662,0.0,0.0064551014821541,0.100027091969856,0.1974715310693935,0.2853678222625273,0.4005631262288864,0.5102630556325156,0.6184456029936332,0.7220494278412612,0.7759034324659271,0.7434916224429142,0.7255376350546463,0.710922293647223,0.6884937700253744,0.6706551247640014,0.6368880763797256,0.5990865888102626,0.5883287494186997,0.615081276205633,0.6444965285339679,0.6874229050345422,0.6911423692007186,0.692907262401985,0.7007891713229664,0.708359260832407,0.7331048313787409,0.719511101892599,0.7022266717282615,0.6993385438385471,0.6676344062273278,0.6260821141856954,0.6389647962001881,0.6731305552415185,0.7199024771584979,0.755177012582601,0.7552323155509866,0.7398296739739463,0.6650654850733044,0.5458237243136885,0.4291210413766024,0.3235791184837895,0.2116860633461761,0.1321707209464229,0.1706980685327965,0.2743096901334758,0.3846976780745743,0.4941728764062061,0.601461425614354,0.7043139430039389,0.7758421633793402,0.7408619890316475,0.7371878138454875,0.7399530406012116,0.7379969683569203,0.7125227235513245,0.6802579831534432,0.6559980699449453,0.6335089290775833,0.6504984454140641,0.7034772489953114,0.7239839224333111,0.728346564384617,0.7340161111928478,0.7287219177719226,0.7336210238806737,0.739861995457185,0.74088024411054,0.7477585317461197,0.7491322682908423,0.7199490184785367,0.6845324347492925,0.6846981485175871,0.7124571590592592,0.7624682098368352,0.7912748956759525,0.8024305244033028,0.7816667554475139,0.6728330679539138,0.5527193753808,0.4332079736815148,0.3261090464501572,0.2152450193579,0.1258002300765679,0.1211191383822196,0.1945425209783828,0.2895149435904041,0.3977602142292009,0.5090099466458406,0.6149161576379321,0.7207311146548219,0.8162434104622753,0.8262895666183452,0.8095783509795296,0.796848463640798,0.7661897388284644,0.730384699265366,0.696806508331473,0.6680151500846239,0.6264817241763225,0.609464297021781,0.636037065946641,0.6604558521453687,0.6846410691186127,0.6849789219377223,0.689147095392153,0.6973245466123528,0.7049178237487399,0.7040231113480573,0.7008177639864028,0.694515897844751,0.6556140813787796,0.6160848850948106,No
4,0.5609629239653442,0.5307888017413918,0.5240242732741489,0.6213778958673544,0.7193566964256535,0.7577795127607052,0.6618732080835219,0.5213593655814677,0.3644077997141606,0.3026104929641109,0.4041552561573391,0.4418239367758847,0.4047156668449503,0.4331041018709909,0.4794362851719276,0.4126903958468739,0.3830141424527093,0.4104444478534947,0.4128921234454337,0.4018686362243029,0.4160823746334792,0.4279345634317959,0.4836244725414209,0.5040868369139595,0.4826954711363331,0.4549791224891697,0.4396187376369038,0.4551969685697834,0.5023666864991165,0.4566101655344319,0.4648461968089066,0.4766979071500312,0.4749426352199961,0.4560990234694504,0.4470318077576456,0.4223369863881512,0.4945141155295394,0.6173506226610792,0.7137992992628028,0.7105127509158509,0.5908330535437463,0.4422049514737747,0.3288105183677281,0.4034910564536131,0.4898475157891511,0.5353605664720869,0.5340053390107782,0.5128527219861958,0.4835145564744296,0.4908652389499925,0.5332595101534849,0.5699141503248413,0.5631284927302191,0.60747097726449,0.6332072974083456,0.6861631495440506,0.6892707509366236,0.622038230062584,0.6272436509972215,0.6291330294722144,0.6596749280524152,0.6869578385951538,0.673882489145492,0.6279650174182123,0.6440360826123941,0.6468279263157433,0.6626729085777558,0.7237744967370867,0.8250580702337098,0.9572534613477596,0.9482937844618567,0.8338789706825596,0.722377207035616,0.6067230434365456,0.6303670320772801,0.732992436537395,0.7887633902647728,0.8161160280287421,0.848626973392129,0.7803818368128219,0.7372962488176569,0.716251290753009,0.6984464613886496,0.6764108971461678,0.6769453064725459,0.7172883508596755,0.7710060453114709,0.7399690830026655,0.7195324374865173,0.669227899522058,0.6180454393369441,0.6824101833537286,0.7334583635767409,0.6971231597195651,0.6692231966646807,0.671442046541693,0.7575173929742363,0.7890950544140765,0.7888557280642905,0.7965410042709538,0.8046565280006988,0.9093238916274888,1.0,0.9317078182025263,0.795353739182981,0.6828239086433152,0.7531802514941139,0.8551861407970378,0.887534024174415,0.8803679456408746,0.8677019734778124,0.8219594818040576,0.7614525767985869,0.7663494257594241,0.8006962886056597,0.7810698972110162,0.766302849439505,0.7727907839022174,0.7272882325285295,0.6891265247365164,0.642935412157402,0.650012369949704,0.7564880381923498,0.8789661622411167,0.880279299076844,0.7788884080243621,0.6577290806673686,0.5478686507977306,0.5210749738155265,0.5161014069930596,0.5490644184722866,0.6053584264562604,0.5992410673256394,0.6313644561580949,0.626821168956762,0.6430253588675665,0.6349046382745511,0.6475499551284338,0.6808605703549464,0.7476752630139956,0.7687645791948556,0.7536239320049392,0.6442481849256083,0.4942681257706303,0.3459166404669886,0.2656107674613954,0.3637848530726746,0.5128841783886591,0.6472538914342678,0.7535694976863114,0.7060313365636537,0.6321458085843688,0.646980652978181,0.6388229764783055,0.6702577696820748,0.5985706246463165,0.5398199931630092,0.5428843203379063,0.5785416072784217,0.5756486030588324,0.5170410743693985,0.5223964755187334,0.5866639570557464,0.6216129400753152,0.610438902190853,0.548689431284223,0.5337646929503626,0.5246528078884047,0.561255515257046,0.568852736391043,0.6015554714524907,0.6496011923650293,0.6873620881164149,0.6559456999782798,0.6056122386635918,0.4773281380319787,0.355031948693143,0.3410409763019668,0.4683093891076497,0.5934155213257251,0.6892688922817145,0.6783472518005587,0.5600799013734337,0.5406107420986261,0.5387487534926443,0.51084653334948,0.5390701421083133,0.5155656677772402,0.4991502958499616,0.5063121021056416,0.5418639028492329,0.5201661221367333,0.5019504298557775,0.4663456373405337,0.5186419579698605,0.5134771524446196,0.5255837488162634,0.4675479775064755,0.4435176549192912,0.4012989189684344,0.4330669909028337,0.4127882461646033,0.3844140459553111,0.3526617863043162,0.3952024580889439,0.4213717267658108,0.4250556714341638,0.3787287967619983,0.2723029180867424,0.1228291198824189,0.0031020051118799,0.0546238963097263,0.1943149845886944,0.3298335186110028,0.4829789471597827,0.5833491715723129,0.4908150104003317,0.3669350758423908,0.2957861904584202,0.2877211444112637,0.3255458590179998,0.3308503452976712,0.3363077642154835,0.3570928062029717,0.314341963255651,0.3511367874987599,0.3005921789388548,0.2551973625859887,0.3091762537993556,0.3150899125024233,0.3353543292406087,0.3704141727913947,0.3466969084702471,0.305168019741334,0.2840148082153462,0.2656858798533923,0.2671457984020167,0.2662170086366808,0.2677428256516672,0.2592949436652221,0.3412159164414019,0.3148542774331355,0.2892677538670334,0.282317628688542,0.1740735348834814,0.0401741126641717,0.0,0.1103065034675996,0.255509410827039,0.405563321700912,0.5273178528511888,0.4856141460936536,0.387415377994853,0.3896837703163927,0.4239546598698913,No
5,0.7248364596909158,0.736038480296954,0.7560994067472722,0.8012174489646839,0.8221721169207261,0.83605164106896,0.850597623244552,0.8369911729316506,0.8412011821069396,0.8740996988633398,0.906109788655174,0.9086520383824052,0.885789099027781,0.8585986319314451,0.8340159694969889,0.7816068303938701,0.7104847876041727,0.6330497313250651,0.5532314084362855,0.463660903799882,0.3729841225007395,0.292255044243082,0.3385105737564979,0.4376905792539878,0.5284431251753707,0.6269481560485226,0.7180684927300209,0.8036986490302573,0.8547400006701209,0.8560479915056027,0.8606784686723543,0.8245857469470343,0.7921851674182006,0.7973613490377205,0.8549241563480319,0.9025188507636082,0.9037884242495896,0.8985115250937303,0.8762955696696615,0.8723252343456016,0.8664783447301261,0.8644925707995719,0.8778968763112318,0.8822893388304198,0.895671419522519,0.9380945306405616,0.976066939569694,0.9900082840422728,0.973360333965172,0.9539527481255164,0.9259325398906632,0.8888039715442289,0.8302420216726416,0.7471505973220665,0.6685129574839057,0.5834403941555797,0.4944182207954797,0.413127028699324,0.4341814314359373,0.5218400787571076,0.6215779036469087,0.7167681205993177,0.807298926536959,0.884824653003935,0.9074639757598444,0.9322414434031008,0.962339586982242,0.935353612389914,0.8780330922651096,0.8231894549937846,0.8162335790254489,0.8621005613441706,0.8879589325537398,0.8883339650044739,0.8857441662029077,0.8947605187634489,0.8931196844297542,0.8786379442690748,0.8714745239880832,0.869022722202367,0.8712411615760489,0.8574903768188071,0.8735130663301547,0.908943754763976,0.947866760305391,0.9622301392945692,0.9724620519732632,0.9744534412684392,0.9659778232270452,0.92562019761912,0.8622836593921535,0.7798839854549895,0.6944892124005428,0.6086228591443108,0.5188058654280447,0.4354514113403809,0.4452985920679793,0.5426673042632215,0.6403279864012998,0.7319325149733591,0.8303565822681058,0.9194633139843617,0.9898246116412176,1.0,0.9872144488120048,0.9625050704291582,0.9199915865238836,0.8629836941917204,0.833233160599554,0.8672208581820455,0.87564597866661,0.867310593475962,0.8620746473587544,0.8529663025023111,0.8367487271052703,0.8276097905693613,0.8197710297438214,0.8100386694687596,0.8150315093282847,0.8200792628269484,0.8051995207609459,0.7724089498113327,0.7548162700384187,0.7539426604860107,0.7692163370056813,0.7797301321742021,0.7935237156143877,0.8018730574484918,0.8142154064649869,0.8221200569828508,0.830176677056814,0.8076283429026421,0.7735433846781583,0.7803445409618757,0.83951889721676,0.8948148168325365,0.930727133413178,0.9455179569630978,0.9112168758492784,0.8205228483196909,0.7282677476126329,0.6303303378072309,0.5391891892265299,0.4386713746553479,0.3435072787318571,0.2503170202225386,0.1660823354808567,0.1606722175962034,0.2423658148930825,0.3326920880861601,0.4266432437534897,0.5192853727820723,0.618191589827473,0.7034409855183186,0.7844017137035455,0.8576790349086152,0.9153760785083924,0.9308649710286678,0.9145940164770638,0.8992959032253691,0.867895034612038,0.8336274800094641,0.8104104987492446,0.8133934905277158,0.8238605845327571,0.8207629514573123,0.8251081783183873,0.826805956562636,0.8355620296746964,0.8347313418592863,0.840524666253573,0.8357993472833312,0.807090483149536,0.7599186831981011,0.7285795749593214,0.7671615267222873,0.829849770059774,0.8788439038595186,0.8873593292777344,0.8562311426432543,0.8386686705147977,0.7625624080122582,0.6632238964984913,0.5616919871311072,0.4640114669108688,0.3724106205800386,0.272286200192201,0.1813343112216614,0.1026596928107792,0.1114048782323255,0.1931039687897358,0.2840645567969739,0.3749458428762213,0.4655103821344903,0.5562021523110889,0.6514227450674652,0.7298373404172547,0.8037851304256356,0.8558834226433834,0.8920864855417339,0.9159899087123322,0.94020815784872,0.9301295346818712,0.8903261695072198,0.8523332672418147,0.8289356360233078,0.8166677056956013,0.8126029385550826,0.8127103865988703,0.8179304737065527,0.819695984997852,0.8363218367337231,0.8521155762165553,0.8406615835735911,0.7866649882445937,0.7304874296224013,0.7163592636408103,0.7553587820144969,0.7971362089885026,0.8088408258849138,0.7900183884629608,0.7388413551747544,0.6476561981712714,0.5537666360501983,0.4529880832894308,0.361107059250098,0.2637926670925918,0.1642007426332026,0.0742098481174062,0.0,0.0218705842549256,0.1116530213464017,0.2021160805207338,0.2942138804374494,0.3833382074086799,0.4735361368486024,0.5583774064179656,0.6386636553677225,0.7167340083391913,0.7804160037207315,0.8112236292900481,0.8333399157255532,0.8592191026101634,0.8555944359055165,0.8243139682432585,0.7890561329569397,0.7795954412294264,0.78825255682287,0.7941847928137276,0.7847372186696853,0.7644861966162408,0.7297518584694869,0.6906309709397314,0.6803542530773843,0.6746339158772585,No
6,0.7884425890189597,0.8175225200266114,0.8473141195247584,0.8519875146675076,0.8540771382557497,0.904703210631936,0.8748890973338876,0.7898655087846018,0.7030083961673088,0.5821195961744263,0.5335667879323376,0.639910006451311,0.7598449237007179,0.8818124192796635,0.9674727228127856,0.9908078578120688,0.9163256085200464,0.8540114430783934,0.8082006451453623,0.7602389334365376,0.7545390243607373,0.7894775988733924,0.794297583896828,0.7623833996801772,0.7228731509935122,0.7179573405946691,0.7263382821720503,0.7513874079829432,0.7324423631273507,0.6889473624678941,0.7341552484079914,0.7721282275413741,0.7909424689065561,0.8491741861910023,0.8906060733982613,0.9286313067064912,0.9485749559703248,0.9450623018666136,0.8959289621663098,0.8298456227565691,0.7533324259714513,0.6819728891004928,0.618196338320363,0.6158763361820023,0.639628560373724,0.6660143733428718,0.674061958883498,0.6816326089416402,0.6804481131506743,0.6734114505530031,0.646142642846228,0.5680064761660253,0.4783543929360729,0.3620148802057126,0.2792466930534547,0.3480149136281105,0.4678291898677384,0.5894668466336781,0.712414779147998,0.8195211229864743,0.8352255496720975,0.7841887221138473,0.7269714314180655,0.668243865324599,0.6893990576746427,0.7540854881386458,0.8070872930617812,0.8181318777945221,0.8461616348594116,0.8838350677628237,0.9337889578422796,0.9603509007293116,0.9742916582258035,0.9470159011973168,0.9187166732128564,0.8905981600799651,0.8578784452383199,0.8528896125585423,0.851932421420377,0.8769054427938587,0.9009722560291222,0.9191206618974044,0.8773608388072418,0.8146154562120125,0.7538704559785518,0.6837150987611476,0.674807713203116,0.7085789381319567,0.7531857451757644,0.7629553899878325,0.7686066576637565,0.7614785447638037,0.7322813191202551,0.6884261318591571,0.6115173061215593,0.4983809696461927,0.3848224979338841,0.3997621515615019,0.520184501235903,0.6400357304337003,0.7632424700281706,0.8802241238963728,0.9659009818171946,0.941069580715777,0.8992592470366683,0.8693078193854626,0.8742175052838963,0.9429172571420472,0.9999999999999996,0.9987895748343404,0.9654540424528468,0.9089693563218376,0.8478923461959029,0.7871106006221473,0.7351641743101474,0.6643117575521895,0.5902180133256927,0.5535550865358538,0.5463511372377909,0.482245421140576,0.3847955750373164,0.2580989735878543,0.1956714942052655,0.227368647374802,0.3448695100137486,0.4482381509378408,0.4705808615108893,0.3602566904486415,0.2368375586573456,0.1854099414029328,0.1924155672734482,0.278278520676825,0.410468477256567,0.5240471185375104,0.5933204170137434,0.668300550378063,0.7076853502076852,0.7692444728806542,0.8365650874591326,0.8922492818166767,0.9174660766630268,0.8801185349074228,0.8160040179778809,0.7805478928673404,0.8046920127871635,0.815965719424057,0.7783779013950372,0.6806347548699616,0.5871627802510546,0.4979900196805875,0.3804899914971167,0.2642189950995548,0.168759082588203,0.0841675352280018,0.09486973167582,0.2040046108261721,0.3333323688778034,0.4611750857181755,0.5633384933040793,0.6263952926358294,0.6572583155072564,0.6649380330194252,0.6818974016989934,0.6800468537989461,0.636128710620965,0.5922733125786817,0.5864899116546396,0.6304197981376647,0.6891927740719059,0.7653956771392543,0.8131578156756043,0.81832820792529,0.7849730612125958,0.781882177225695,0.772401970868116,0.7661177018842134,0.8055090696365541,0.8384881366867325,0.8755292945327278,0.8792604547547445,0.8565995192047762,0.8285068890428748,0.7829657824727132,0.7510510113154178,0.7240790836285274,0.7008493611037507,0.6355421033449695,0.5816384398920902,0.5865627516246898,0.6520512875813451,0.7076583703738875,0.6960532655188247,0.5813304749591666,0.4573017012117857,0.3349018641135779,0.2151119929031772,0.0925530397955411,0.0,0.0270578280314612,0.1348222196040955,0.2527198460898208,0.3729128223760432,0.4833639601615322,0.5703693851297076,0.601939462854292,0.6003399027837837,0.59238923477331,0.5929461492629136,0.5784062251411317,0.5639446426791186,0.5198387028040052,0.5386693824677713,0.6040855952183697,0.6768786649079019,0.7521098680955136,0.8231880893483394,0.868232980245899,0.8694282105957547,0.8446565631508629,0.8019078826399171,0.7341196580165477,0.705341139185911,0.662852157320077,0.6019737460620367,0.6148845172110584,0.6598564764395523,0.6450808231572975,0.6453921563672465,0.6419111427036022,0.6538517707653377,0.6929918006586409,0.707937072611593,0.6958958661765959,0.6621997094641867,0.6809994232883327,0.7494444099940636,0.7994156541283202,0.8261273423439115,0.7325761268424764,0.6118261264500315,0.4914914722347956,0.3759195541558653,0.2637618027868487,0.2199720060004066,0.3091345305940476,0.4259486934228302,0.5454076788942137,0.6631210090293251,0.7533119634255292,0.8108675129954754,0.7891193854645469,0.7800936974631116,0.7654791916309955,0.7325397651006931,0.6948535634799398,No
7,0.152174131153004,0.1677361228024803,0.1824455727037297,0.1874413757147661,0.1996312914662792,0.1738356014702082,0.1679842291337649,0.1639062647125442,0.1633735965902603,0.1573302586428311,0.1708436548785523,0.1842653620856147,0.2000673374232957,0.1990733950371122,0.2028627208570235,0.2646385188169318,0.3519340025579978,0.443655176491236,0.544703394528038,0.6462701894721148,0.7520740633466336,0.862609146598563,0.9639464401586592,0.9999999999999996,0.911917780021818,0.8005957072403169,0.6963773955555297,0.5821734141288855,0.4870999547204033,0.387861244294263,0.2874207497749652,0.2411642225820811,0.2656002244482742,0.2708897977814715,0.2491298722752009,0.2234125490429517,0.1839066475438313,0.1988270279126864,0.2118424475982814,0.2091541949554081,0.1870093695756294,0.1806740459672076,0.1714631431738236,0.164243923971517,0.1705463994345115,0.1752815341170084,0.188363742757168,0.1906875661684348,0.201863279247453,0.1805855281563237,0.1818220484385286,0.2039744613357021,0.2096265815511735,0.1864498387624329,0.1849802265662146,0.1732550065424538,0.1752146454857461,0.1796625619262823,0.1645730645597583,0.198148309524027,0.2847649657427751,0.3799135721808127,0.4817321469540103,0.5925132307848751,0.6965625067883598,0.8108439513917038,0.8926646687265571,0.8789497637748354,0.7852796354244469,0.6725405571036749,0.5696688063889512,0.4563687034741863,0.3540625845126119,0.2495367744182464,0.1873214520923127,0.1857501532461434,0.204782164816236,0.1898481767609268,0.1539172709405298,0.1079145758294108,0.1262313286764258,0.1481039608561278,0.1588572800060723,0.1586442951041218,0.1571752585267374,0.156532775095199,0.1357905561756567,0.1407593779120839,0.1431984113347102,0.1484487791321913,0.1590781314160549,0.1412276023859879,0.1362972285188952,0.1386806382857885,0.1460246304529047,0.1670693194432795,0.1615169571302974,0.133806525346229,0.1310939160940232,0.1274570476502363,0.1056865985273782,0.1233231269283723,0.1615475004462769,0.2372204303347143,0.3233571528598169,0.4279722363805778,0.5325885537375319,0.6435115046918032,0.7553615521900401,0.8587854489697437,0.9419646545368194,0.8968873952651459,0.7927600036970133,0.6838800868291539,0.5732024308329229,0.4775835014202663,0.3741558616837266,0.2725875237819619,0.1915117748392139,0.1906871331156061,0.1999225768295875,0.1892586675710541,0.1447420335341593,0.136067664329341,0.162860616338393,0.1714845012210668,0.1711816788549751,0.1617471778156076,0.1594250056034889,0.1350163785832063,0.1405200035089095,0.1568493380593478,0.1704487468410866,0.1547675569450479,0.1523317116360201,0.1558045594994297,0.1057163267150933,0.0695153456928387,0.0834039567551641,0.0882635118066552,0.0815349828442677,0.0675278362989688,0.075791393441023,0.085753354725913,0.0880279586034666,0.0974043058303868,0.1016886701367236,0.0811361676330997,0.0682357371159958,0.0735405450486301,0.1083195922756532,0.122514587708054,0.099992100325426,0.0220250730021396,0.0,0.0720717014884448,0.1703682986193055,0.2777162405039388,0.3779084662690795,0.4031018848276821,0.3109584311364046,0.2233957054548891,0.1418803939826149,0.079632875470867,0.0497775590352618,0.0262779480697732,0.0509009863570999,0.0514814927480165,0.0616300295178482,0.065535568519631,0.0848332224320906,0.0771399895374949,0.0583273281145171,0.0550012334903904,0.0628189094298723,0.0710893433226829,0.0730386217943546,0.0579699373602511,0.0552735092279297,0.0638309255513425,0.0790408804495625,0.0776897567621062,0.0856797083311269,0.0839391309297332,0.0743726043108985,0.0449319670763337,0.0342943097420342,0.0784352568004185,0.116789787473472,0.1311656692730776,0.099246255254755,0.0541585255229355,0.0867448440554952,0.1905656450384643,0.2926114682371246,0.3862468463358022,0.4651865498821461,0.4851891603058842,0.3899747231807962,0.2922528929117107,0.202883338813856,0.1291300384647455,0.0935870308775337,0.0929374846529751,0.1102399156522428,0.1089177324731887,0.1089752172988398,0.1165539456910274,0.1207419389982371,0.1349227639025527,0.1241054017275717,0.1109982288395921,0.1104340843293067,0.108742501370084,0.1083160215531688,0.1097734016032401,0.1041032123572232,0.1027895080542062,0.1056422493413027,0.1094155191080887,0.1194836787541824,0.1275207569728094,0.1461686882387871,0.15651642346252,0.1227728987410556,0.1053970227855174,0.138239588529442,0.1731333338892282,0.1960966626042801,0.1780063879810089,0.0997632445719012,0.0789087166758903,0.1483316095843392,0.2503183097618913,0.352793362286655,0.4531894220416173,0.4630270385546535,0.3729486156059898,0.284185424091488,0.2017308990758639,0.1460295786640202,0.1239397519825877,0.1228592318441097,0.1134388561208825,0.1026997366335051,0.0931522546917325,0.0955731147556382,0.0915041431933709,0.0980974795393012,0.1125329190976121,0.1120872650379145,0.1212173211850058,0.1089331091160965,0.0973385020148596,0.0680851353207838,No
8,0.114607254252113,0.1285743652466999,0.1690620639454891,0.2303047017436226,0.3644636869681994,0.5336400283335445,0.7058900206811964,0.8660638686476849,0.9716850751679972,0.9169348885389564,0.7723446522153985,0.612018757604111,0.46272289958738,0.3164428605335994,0.2148986213766406,0.1863483878026803,0.2086935201311517,0.1633068910039226,0.0942710696423798,0.1057792990787911,0.1445995022617863,0.1468479542807452,0.1233475823995897,0.1066339855963178,0.0826589304658851,0.1000054800650156,0.1375064569338153,0.178417825009193,0.2143124257221647,0.3078620988288971,0.369136118420764,0.3482788710390041,0.3158153570176409,0.2654533864928456,0.24928496390931,0.2492221547610746,0.2577510321778096,0.2784982672163112,0.2537514639329989,0.2311308673526202,0.2351220372820872,0.2221260155324591,0.2389908209470999,0.2482348626172932,0.3157219567536025,0.4578027473581487,0.6191900955532512,0.7672929348212705,0.8746146601481035,0.8105845765438788,0.6485082319738087,0.4810322932445725,0.3532229130168085,0.2944007044940964,0.2610717270533573,0.2743316408357295,0.232004199774547,0.2049985077778968,0.217492100538279,0.2453838417781861,0.2220386292888898,0.2155681550140933,0.2244002763167474,0.2478851979516685,0.2546352088913135,0.2860586374861569,0.3101180861885302,0.2861559442871275,0.2673976131185176,0.2335222108246339,0.2160459937374454,0.2397627834424307,0.2812147374078719,0.2828626914872298,0.2828629339677508,0.2822642360359868,0.2649545373413051,0.2918525136603715,0.309775000152876,0.3119711583994444,0.3325784510522283,0.4432194282120774,0.6029756686694006,0.7638446419341038,0.9110232551643076,1.0,0.907493515482833,0.7608915634904516,0.6260316074662828,0.5122373515615175,0.3983097154360626,0.339689033890922,0.3474184745140736,0.3618826268666169,0.2929114919238937,0.2423177351532448,0.2426107708402503,0.3006442637250694,0.2973374323473852,0.2636640538220511,0.2494229864663948,0.2612850890180906,0.2857051415230849,0.3130230888508194,0.3370745856901722,0.3489169342482476,0.3260642180384181,0.3151242305600723,0.2905770644547054,0.2688693242658564,0.272130254488272,0.2539714149167373,0.2727525271578148,0.2802101413663198,0.281617565617366,0.258395311145855,0.2491993859091765,0.2410496356186442,0.2240007014550435,0.271930575739737,0.3853828899528935,0.5510831047026343,0.697514867564581,0.8608777586185159,0.9692285586310092,0.91872505479643,0.7776023000303507,0.6173693906939981,0.4720104042363173,0.3337556718655952,0.2737813991160491,0.2765998744402642,0.3048283946104275,0.2463154209817482,0.2023444272266781,0.1943679972074727,0.2101073212241226,0.1847258941035523,0.1752682890412202,0.1255397115354037,0.1006271243887049,0.085743559757871,0.0922410410651783,0.0461162973190907,0.0569178316322922,0.1070234099118279,0.1755175540905211,0.1696995715143243,0.1601980643777789,0.1767975626414051,0.2691767224820856,0.3955844175915048,0.3809620482242701,0.2554681215640659,0.1703349050161327,0.1222950222450967,0.1193710158471832,0.1527177124026879,0.1681690959917192,0.1683705323028803,0.1682814855516028,0.1559566159100232,0.137475503273623,0.1540536069630489,0.1433152061147957,0.1898870592321735,0.2033788762149369,0.2271539889999996,0.2356011330569556,0.2235315202293577,0.1898837036759451,0.1684018333222807,0.1478451447150286,0.1411598224066059,0.1662040818039196,0.1747858126634467,0.1708149958230658,0.1257907104332662,0.1248799023368176,0.1721934741548612,0.2218058414703856,0.2121740935242391,0.23220090355783,0.2855756298198635,0.2970968898474364,0.1632185345237129,0.1140245162078912,0.1722225027615698,0.1772192101920895,0.1850954216018765,0.1688314538095907,0.1684871057434165,0.1786361196644081,0.1801839803473779,0.1764397278363541,0.1527452753759917,0.1060742781523673,0.1174845960971016,0.1454420179688256,0.1676348246496646,0.1805321416030505,0.1844814408371995,0.1657402207800657,0.1412065469273233,0.1488410622052329,0.13134593737567,0.1057919249589351,0.1245319611455579,0.1337943589347556,0.1120551556053657,0.1016495612463108,0.125741383913736,0.1650192965672268,0.1684286975984585,0.1816065837523242,0.2611469383536571,0.2741228548082199,0.1577778101990947,0.1171650328604805,0.1312572440829154,0.1076259904096437,0.1279605079121415,0.135555461651748,0.1575599241119292,0.1683046481250123,0.1683705323035536,0.1683705323035651,0.168405138872238,0.1785391510915808,0.2294043279526594,0.257539014195741,0.1951865351691468,0.1133600789334066,0.0685621469106925,0.037586120388009,0.0058345432499704,1.2961440756242835e-05,0.0,0.0020616684257817,0.0326591189498302,0.0596827819749172,0.0158692919592455,0.0005739181174329,0.0275614408452922,0.076450916836575,0.0736556563450152,0.0753488061748521,0.0808394942360646,0.1530317848493014,0.2546615835179331,0.2139687321911276,0.1007747125359568,0.0618886161406706,0.0360346037151391,0.0336746749670107,No
9,0.9026394374027342,0.9066682285700942,0.9337710326102996,0.9266983160752548,0.9371140850840868,0.9073822209182358,0.910899798796887,0.9091726341731494,0.9083050664163546,0.8619058765112761,0.7947800468312822,0.724283982140359,0.6484257828862754,0.5938599930337798,0.6438983511558183,0.7342411421463995,0.8045281253069865,0.8523615537174098,0.8811523279124343,0.9060660331410632,0.9049893975544192,0.9090762686722912,0.9086119069621486,0.9030354596128928,0.9280159721512868,0.9089805510716849,0.7879760014007324,0.6655665074096824,0.6821753084677837,0.803948914676619,0.9362896200999016,0.999572051287057,1.0,0.9831312747488604,0.9816559551112816,0.9677344340899952,0.9325837998108106,0.9104879662393222,0.9205808157941932,0.930967771353732,0.9523070328438026,0.9714121816692662,0.9356802893590784,0.9255378780609416,0.934461053903755,0.9147854104460702,0.9189845424119856,0.9087295995862492,0.9201954785840928,0.916694866431312,0.9116995030889914,0.9158708561384534,0.917922805310595,0.9173341152485824,0.9086373858212298,0.9078674582191048,0.8967301386664639,0.8701911765623516,0.7961211258522276,0.7168856653342788,0.6312181267883821,0.5828817864727664,0.6446169962465227,0.7221428024053038,0.7796639811315522,0.8587967802362142,0.8986974142525428,0.8744060592031424,0.9009051032641864,0.9138181260157144,0.8981747262418436,0.9133276719400428,0.9066547731450924,0.8316838278519656,0.7287750862708497,0.5991680182684265,0.5330556217339772,0.6509974798929576,0.7695774771753694,0.88810022797378,0.9479311464939376,0.9720107795754576,0.965900303205653,0.9667928961993396,0.9874831042453628,0.9794260624767732,0.9093898036134522,0.902328021621626,0.9328264328140145,0.9232646263548424,0.8950817944214915,0.9115446036904222,0.9057229896333876,0.885087731854453,0.8478158736196493,0.8480554352126237,0.8391744156407626,0.8042480837494885,0.7856127279869698,0.7561173268495613,0.766558576601855,0.7671961455788665,0.7606331006430516,0.7638164591581758,0.7584520758204878,0.7602081012270201,0.7169369565480368,0.6369614027136965,0.5472161509760243,0.5015459940608551,0.5557900189018019,0.6334544524197359,0.713998158698729,0.7774103112430994,0.7988723801884339,0.8199683455904285,0.8187462951266022,0.809611290274062,0.8323305394211378,0.8471664896814923,0.7760283711263822,0.6748373272378947,0.5392016797423702,0.3969186265226936,0.2906524152016496,0.2030321338980227,0.0995294198208798,0.0011051377004154,0.0,0.0883621648848755,0.2503381227963226,0.4152274462471874,0.536829241205786,0.6216516424002023,0.7030771461541905,0.7014946315015251,0.684652920742864,0.6941232638794048,0.6800383625523105,0.6817804716398879,0.6522962389765361,0.5682271415065321,0.5001197787850593,0.4299915621571157,0.3684788743670335,0.3797783991785337,0.4550010714638928,0.5495308326929509,0.6302900723381235,0.6633131447536886,0.6536137150591816,0.6341989605869003,0.6447838702603716,0.6518091945701574,0.6373094082901032,0.6692753121295096,0.6534914714319671,0.6994391912031714,0.7231764153090721,0.7077075241400266,0.7328302831138052,0.7733610262916395,0.7771991604868429,0.7824482807383291,0.7655898579689673,0.7736650721615685,0.785877543574677,0.7862750585264839,0.7980487318760767,0.8483870153166757,0.8598468214903932,0.8568786277645852,0.8466400862345136,0.8049706810281307,0.6863236865695592,0.5722651910840018,0.4423808660714945,0.3169040744668461,0.3009747805760714,0.3951843200033407,0.5255158209281294,0.6574506407679852,0.7342772716969117,0.7437085440973892,0.7606547758946034,0.7785707302912934,0.7648437168695956,0.7672973544977282,0.7500485129270924,0.6738232152152257,0.6346776375874805,0.5421010639580386,0.4377148752410598,0.4118510497084848,0.469381199307417,0.5640336613729051,0.6500062275357879,0.7280806735057608,0.7878839373549509,0.796855059747597,0.7797707242705378,0.7632773536623114,0.784964004922001,0.8042844089827605,0.7938856643479193,0.8100908313506165,0.8144136537803428,0.7988862598563866,0.7999972789385374,0.8124170566306121,0.8047642346650967,0.8030895793048547,0.801647782453494,0.7992856949529834,0.8211062875580417,0.8263423830387557,0.8275851199331496,0.808034859907619,0.7748348385150257,0.798599262795264,0.8440442901517748,0.8653276608600855,0.8697902359967316,0.8373896248127295,0.7704298274590355,0.6510557081889337,0.5540274384314223,0.4475112266534342,0.4704020038534171,0.5711147966205781,0.6970136754913385,0.7757019249964667,0.7870007544434863,0.7505464432633095,0.7482272054368764,0.778861037858265,0.7971990523709422,0.7697321594734188,0.7595393299710498,0.6953680951321086,0.6099285721842289,0.5223742681385888,0.4835160972513996,0.4669992275525141,0.5399628505566332,0.6180538557465649,0.6913792402730774,0.7641874036753951,0.7852888012051347,0.7696529827600562,0.7833355734274665,0.8026287165684716,0.8151768060492675,0.7933173002414717,0.7862329953527372,No
10,0.7020169945664279,0.6183205337792597,0.5661276716945611,0.5331095362484248,0.4699868913979212,0.3393411875528098,0.2985662980181072,0.3524823695042069,0.4532183980236866,0.5209899195079863,0.4885597801273746,0.4746514172760374,0.471881094001624,0.4678930875917526,0.4367465497796416,0.4179233987669004,0.4185691817973005,0.3891292198760769,0.3777331227813523,0.3415063561213305,0.3581782572485146,0.387015916494466,0.4131186642388016,0.4204919335329187,0.4286692319327567,0.4592408375241295,0.4696919056033444,0.5298429471136359,0.6042672265042448,0.6224077750417631,0.6088747487887378,0.614034999405046,0.5997295966446767,0.5825390842604783,0.5725906286591496,0.5359872326175381,0.5027823483672442,0.4780557613152254,0.4993410015989674,0.4820580750654901,0.6015998815084291,0.6656422118746157,0.5808218477499434,0.5699075181755937,0.5480171146941739,0.4715290077472307,0.3860147795197584,0.3473633264950333,0.4472167085429692,0.5147306564327856,0.5983564604343812,0.6005072049232467,0.5477132624409826,0.6052506718656545,0.6167260597648951,0.5889015453354496,0.5010042806890329,0.512468968405404,0.4925375818550037,0.4672867388134154,0.4786744556539339,0.4843663399382176,0.4651129121909356,0.46209514055891,0.3762578396504992,0.3728129265513917,0.3532817424413039,0.40181838983065,0.4422272724853844,0.5198361154701914,0.5801508712525543,0.5773848262785766,0.5404583607525613,0.5639382024484689,0.5488166762658491,0.5335188152288524,0.513300904998923,0.512640724386447,0.6738856301415836,0.8762084293033094,1.0,0.9160866895396752,0.7323538380230143,0.5706815254697446,0.5141953146574725,0.4450834616888688,0.4358764122202583,0.4099277689076963,0.3021483591826817,0.3140824333211469,0.359210579500143,0.4175607821367784,0.5179846960600152,0.533653807036556,0.5547060437964983,0.6218645610745241,0.5924069960584859,0.6190893565627,0.6061329241039992,0.5400412333657609,0.5298196879519832,0.4914718118999026,0.4628058803563775,0.4862496188124527,0.5257250504187745,0.4974911804322843,0.4451449814384567,0.4846764818348035,0.516111807168592,0.5157280809561051,0.5740907777380215,0.5953588806569208,0.6226941516867779,0.6143430779368693,0.6256920628439175,0.5775809780567922,0.5364192600849513,0.5542552956516946,0.5580821399540312,0.5047149181717874,0.570415058156458,0.7559096298389409,0.9296050357124734,0.9299023579814474,0.7646956171542776,0.6379852149037806,0.6077405769672382,0.5146368062504898,0.4605056477040552,0.3649508919688937,0.3273899477812616,0.38816661021486,0.369099619010008,0.3499070047073438,0.398159429502309,0.2998737808282978,0.3199168638839662,0.3836853546912895,0.4148600744334469,0.386728039532306,0.392754934345854,0.4550105162870537,0.465293491744843,0.4584870501386575,0.4202150460448948,0.3868792360717208,0.3410876619537166,0.3451720224277945,0.3239045391818695,0.2835412194115205,0.3350485303395558,0.3658596537215839,0.3234800747341051,0.2853711807132635,0.3520015109478382,0.3676950799930516,0.3746585763092547,0.4322316046912533,0.4306469571037503,0.4427579799827938,0.4121419609837282,0.3683856799024703,0.3661843482661115,0.303887326376115,0.1847746188295866,0.1699541034587222,0.1342243439438295,0.1554896327628512,0.2557500963490255,0.2546187970668727,0.2363215444917852,0.3222962826527666,0.3295743903388874,0.3366159826234192,0.254209729799931,0.251241199515019,0.3253238561942373,0.3959787562584633,0.3469615615689232,0.3031036223868693,0.3607297898580519,0.3371427855923468,0.3782717147287506,0.4107819908480365,0.3460508927641452,0.3097789970060391,0.2250545997369233,0.1439299067579149,0.1572790517386204,0.1720590293950978,0.1483385142174151,0.1946887704326929,0.3089996529418064,0.3048009315628617,0.2488710909724254,0.2906691651825319,0.2778384595911252,0.3100148614564304,0.2836730825364402,0.3488279350434968,0.4053129129425787,0.3755911547128328,0.4199638471834266,0.4241439895758105,0.357868008897455,0.2446808799850641,0.1831467167859362,0.1797685902137429,0.2302423581045802,0.3268272297617649,0.3898176771837391,0.3993234998271919,0.4165879585928262,0.3986944596482153,0.2687726671071084,0.0849713806648004,0.0,0.1145273964584214,0.1971717110870656,0.3160373794689564,0.3821836280424424,0.4222000386835898,0.4574919647629585,0.4344005887903197,0.4630377357517456,0.4652909800072695,0.4533851335974841,0.3806733934898751,0.3136726762043738,0.2984962054370363,0.2725198349886364,0.2505096362669352,0.2697225061337533,0.2529316473200707,0.2223174894460635,0.2214445388172636,0.2348905673794323,0.231934875304562,0.2488868721508108,0.2391032615160604,0.2684616300365459,0.2963313358659292,0.3186725474407019,0.3189446306791712,0.3243292951468923,0.3434800162247953,0.2498068447092087,0.1649710618977087,0.1325732351613577,0.1715493537579,0.2564467787718927,0.3639165261931385,0.4101229376243971,0.4417248127572808,0.5052265308272386,No
11,0.2543172914332832,0.2752925338596865,0.2577137031229206,0.2745370858501079,0.234676760883981,0.2095540604586592,0.2080297840874463,0.2179411229682033,0.2423002558890141,0.2491458523212566,0.2099678899280705,0.2077444767092995,0.1718063208159215,0.1562752725015199,0.179995839672209,0.1980933604081451,0.22203411384797,0.2502497417773055,0.2698076255164388,0.2821733674297455,0.2555262134791123,0.2629935034832309,0.3112366881939916,0.4234954547758223,0.5453929834613289,0.6545015027794543,0.767817345132741,0.7575159537212954,0.6104001462200577,0.4607475169770296,0.339552699669281,0.3406536805352855,0.3089067356728847,0.3176691109250091,0.3380399784769121,0.2769987588247327,0.2824489648734243,0.2293297201461062,0.2041543269098289,0.2534678560228283,0.2825650689616878,0.2611704140180171,0.2530715339051124,0.2449480405478112,0.2512400585870278,0.2477026780674762,0.2412814620258521,0.236883734653075,0.252867590477372,0.2496526992786805,0.2325811006385034,0.2446175736025448,0.2027193262185385,0.1472017638086482,0.1158944653018441,0.1378843481425624,0.1758706208700564,0.2480640796884241,0.2551333207737167,0.2789336049705184,0.2579765754632657,0.2327639914249886,0.250062888162998,0.2887583134347853,0.3984222079868642,0.5023637941917114,0.5868838606443498,0.6964375686925903,0.674412822257942,0.5379183279347819,0.4250704964091909,0.3341584505040824,0.3037201410710599,0.323494754988733,0.3130037190814363,0.3160503739497473,0.2575192352385089,0.1891156010069208,0.2239546548719024,0.2483595977036241,0.2357422816376102,0.281244055507317,0.2614463499795025,0.2348885173904999,0.2435726355027911,0.2215778659807474,0.2170110193574634,0.2165994476653798,0.2025266143360715,0.2104378020072657,0.1632293092958594,0.124074445071777,0.14415062854951,0.1685219572213103,0.2131934208772214,0.242483918485072,0.2734822819012219,0.3075183351601938,0.2541195376329339,0.2196766877441129,0.2170060624173864,0.217546167538944,0.2483573555743197,0.3291209661240826,0.4542206217943771,0.6040783672074506,0.7567019990056973,0.925595801264893,1.0,0.8972931982584482,0.7462098659040066,0.5896579472257306,0.4519339312704558,0.2956803717516214,0.2030775644058371,0.2640550085921944,0.2601066595499581,0.2441168077303661,0.2526232304570071,0.2283539752336754,0.1778279205121906,0.164666258307764,0.1990786753297566,0.2374648051149135,0.2217893300808375,0.2169916399808649,0.2087421608323332,0.167210720094487,0.1796487069557155,0.1785103013164253,0.171704033048865,0.126416584849605,0.0619995720334385,0.0578870365899577,0.0579529241056482,0.0690571568537521,0.0930933671952489,0.094913623289333,0.1165304512417222,0.0880917372972813,0.050405651299096,0.0257358675497139,0.0695463832325202,0.1113251909994055,0.1237287667618307,0.1290205864267486,0.1000075803728863,0.0359645191969209,0.0099501061253057,0.1263562795992641,0.2770770687459229,0.4033790261536447,0.3427733485357151,0.2490714670216016,0.1667118187307084,0.1250845878519504,0.0966991822184324,0.1009379972254818,0.1042393717083829,0.1148502635526842,0.1437492841076846,0.1088143718797258,0.0771442884113797,0.0580396351803447,0.0405421161806369,0.0,0.0143000875305014,0.0622374615233596,0.067403187054519,0.0882698417736991,0.09400325906957,0.0851875708369007,0.0699038147098782,0.0772025109713503,0.108284615329615,0.1137585972656127,0.1132339532964321,0.1047263600670165,0.1213523597840042,0.0921821469068513,0.0509748820533513,0.0787058945076939,0.1575979919091246,0.1681318219969547,0.1949621345333341,0.1942958515501018,0.1163925844869782,0.0754813420858857,0.2017471043251966,0.2929726872598568,0.2970477734888908,0.2867853415837951,0.1914762546963251,0.1598330094765776,0.1097583636233974,0.1244652189313022,0.1615622394868969,0.166139782344894,0.1467773647465904,0.0794412702733371,0.0395491127634572,0.0245785519017811,0.0057869018551421,0.0114123745261354,0.0681601330013883,0.1183242038354208,0.1311168080874374,0.1460972218480654,0.1408995086086832,0.1225210935103451,0.1053533595203184,0.1291823883886493,0.1220884269216808,0.1059407963115219,0.1293433503369314,0.1467119057374493,0.1646810770422409,0.1248053297395808,0.0723910413009232,0.0954017329200045,0.1423472266780248,0.1702875190632085,0.1921498733470459,0.1644933267289383,0.0910570031208468,0.0311005592752646,0.117266836263596,0.2579369195439502,0.3751591910466931,0.3736886456296417,0.2584023450516408,0.1756813825509287,0.1559372276656843,0.1513922747374065,0.1659609504547843,0.149401070053841,0.1253545163790779,0.0970863424410533,0.0807174061899269,0.0840227997199063,0.0517760130446269,0.0242080896559615,0.0583564520456576,0.0940653378546176,0.1195597033700632,0.1379905641194909,0.1035640300091564,0.1162109159427036,0.0833318899592114,0.0878525718572573,0.1107043431902372,0.116250849785259,0.1157802194115911,0.1494592688239473,0.1307935530062405,No
12,0.5229679889126841,0.5531900602337925,0.5690418419438465,0.5698455298277176,0.5582364940849178,0.5534379779998191,0.5346753579563575,0.5299993986908555,0.548845907667741,0.5565086833600854,0.5589170020096597,0.5598634558604298,0.5701712548462279,0.5758151245491852,0.5708675985917888,0.5197530227482514,0.4386961805316072,0.3758200951912633,0.4306253447450312,0.5327021119285367,0.6470575663463878,0.7556339167884008,0.8401732721921031,0.8318089505245263,0.7387519999350816,0.6436066136325191,0.5799129026850052,0.5499079557613005,0.563182892765457,0.5623975352185657,0.5168264744823348,0.5291979020353446,0.5702856717061922,0.5734217835708875,0.5821006732959368,0.5943659697133259,0.6016749493608446,0.6123158995936078,0.6110950872773895,0.5986573817709373,0.6209461131155156,0.6675418564665803,0.6651377633030835,0.64728012584,0.6430379085852844,0.6332017539286423,0.6213816991415162,0.6100607881113556,0.6187018766068872,0.6279873028236547,0.6271372020990871,0.6301580805929117,0.6293771805624311,0.6263132284215964,0.6238503399274666,0.6233659171060912,0.5763243428070353,0.500165595701414,0.414357500271918,0.4217670099244301,0.5189395442702436,0.6311499419888387,0.7464951056533518,0.853513254609223,0.9490054443403002,0.9574023260539342,0.860713558622098,0.766456027875432,0.6811293127066058,0.6440174716890743,0.6555255027449296,0.6442190559132541,0.6196560555528845,0.6340433148186073,0.662111804363859,0.6731187032102519,0.6739321397586249,0.6900344416930455,0.6798123756013612,0.680687708651321,0.692989428014863,0.6938621451050668,0.7136091925377888,0.7422607867425208,0.7188483025123369,0.7128727535918213,0.72555315395492,0.7053293366453794,0.7053800946918685,0.6962846352613989,0.6777183243146854,0.6593363754214834,0.6364378548581779,0.613642512646253,0.6041394039468089,0.5931376995287656,0.5368820231785976,0.4546634876614708,0.3988287112359789,0.4712630676276532,0.5863076118533685,0.698370150066824,0.8016809831085592,0.9150622348245464,1.0,0.9770897856100283,0.882380737659699,0.7815276300291427,0.6936629766054243,0.6323735636983496,0.6024976857343365,0.5712477767403388,0.515531296824546,0.491732790133415,0.5001328128031113,0.509371046792614,0.5241552141946886,0.5235147299920309,0.4961310420355587,0.4384567323389907,0.3616230237098228,0.2527637592146758,0.1413644303118619,0.0928285487176756,0.1443401998884894,0.2554620967246959,0.3608168031891026,0.3854266936454502,0.3028695268459982,0.1886194257549638,0.1022326350248552,0.0930063512941599,0.1566833551710913,0.2695328738081595,0.3713641732004302,0.3900561489048084,0.3055262453616305,0.191238290529585,0.1033113333084236,0.0903220169992646,0.14000250298804,0.2500564594141994,0.3562422574532844,0.3960756566614591,0.4285950696547131,0.4732432396151536,0.5065320384049308,0.5354844204088147,0.5996924322626942,0.6718523452969358,0.6456682579172748,0.5446761624328369,0.4299111202583856,0.3228821602728282,0.2339651842389072,0.2398173881352177,0.3268715723805795,0.4068091015771315,0.4844043990944437,0.502731948004357,0.5085806081900466,0.525025196282527,0.542882628243782,0.5721970805183303,0.5838620198213698,0.5937653098469564,0.5967324732456034,0.6104164950012478,0.6019468784630813,0.6139071443338215,0.6168554801672834,0.6157759060987953,0.6039723186338182,0.5790496599526778,0.5714940839169818,0.5698392922035858,0.562755333696821,0.5696016440039484,0.5624750639952358,0.5492511375914342,0.5195821858398646,0.5095549145468974,0.5124269284874137,0.5596274475214598,0.5500049286582573,0.5403793818667548,0.5670877327205064,0.6451468325147891,0.7152429868762069,0.6378329571254895,0.5227130407594096,0.4123274378920354,0.3078744532434596,0.1975478922698075,0.1555455346723331,0.2213529883832286,0.3045819004159944,0.4002334095048772,0.4759896899843721,0.4966472404425799,0.5027050607187049,0.5059614177843454,0.5223350441735297,0.51567556430181,0.5088979426638636,0.4968177251546586,0.5076963417773004,0.5186718976497011,0.5390522475314361,0.5330149542878009,0.5408653188341748,0.5493166432543397,0.544184332994655,0.507871823182823,0.483744252878445,0.5025552446975681,0.5017441994652878,0.4803243814618771,0.479512754227966,0.4675819649831871,0.4668613841589413,0.4273357519925329,0.4129190497724559,0.4377754777133837,0.4502256085927989,0.4582602052946023,0.4891034971148644,0.5500670889784374,0.6075294465919514,0.5333574452439587,0.4185645143046979,0.3127109374921826,0.2039198161496811,0.089596519049595,0.0,0.0018358838501688,0.0972006393693512,0.2004012676344322,0.296276836237674,0.380791619177534,0.4397035143511618,0.4449098392803003,0.4429854567360434,0.445556593676685,0.4447274341351468,0.4377260714347923,0.4227407338103575,0.4040932030790576,0.4227790756992911,0.4477142278157924,0.4592262527323361,0.470996841010443,0.4539875180246397,0.4332017698379973,0.4191863262753559,No
13,0.208844788186238,0.2048712646156723,0.2052999781982061,0.2267038302004858,0.2208724642214976,0.2005764140650106,0.1981671093967252,0.1824552800327152,0.1966365692945499,0.1768643010828769,0.1709823530408556,0.1708458130805024,0.1581587004154165,0.1247658635599497,0.1163441417569348,0.1551209657178649,0.2284540837045501,0.2562494293438764,0.2497101930013956,0.2293073564164851,0.2336958558358164,0.255206671863931,0.256918364281848,0.2693089769033951,0.3149316190801388,0.3364982264613507,0.3587735410153279,0.4719050359010994,0.5929432154129062,0.7148862457363725,0.8019737255178274,0.9115444908160856,1.0,0.99956585707623,0.8844753455693075,0.7451632813203011,0.624392356573428,0.4877231691084391,0.3738875169654072,0.2713499554652046,0.2303901490073361,0.2486036277043357,0.2628431944135556,0.3035299827284703,0.2900791079555231,0.2522724582314142,0.2497335810926602,0.2570498945536732,0.2718259673956549,0.2853015488559851,0.2902290031099852,0.3046490517868259,0.3135368128763218,0.3109849623379128,0.2981718333249032,0.310483790362805,0.2999926607283667,0.2712473607286103,0.2400736350868682,0.2282384060573186,0.216853177670834,0.1969181901849914,0.1743264841898399,0.1759104874081716,0.1971981931104327,0.1877587574321779,0.1946083793776072,0.173989833022615,0.1530667710109439,0.1144986912669914,0.0964519281997029,0.1439591918314109,0.1991082710266205,0.2405231572822597,0.2499306936903922,0.2131274317139926,0.2017950442584171,0.2171642211109139,0.2009374794753498,0.1893967713056632,0.1999855238046732,0.2296464192133713,0.2719135723037462,0.3619740727977181,0.4903963295686599,0.605621860542942,0.7191198243506225,0.7918363421672128,0.7527201803732133,0.6389463027736424,0.5175284565646097,0.3867565063780036,0.2718336250028628,0.1697193052190746,0.166106167515541,0.1716493610011813,0.1902139880274056,0.1963766874656105,0.1587321900864786,0.1398929182567503,0.1332899578137976,0.1655672431904014,0.1760889153621736,0.2182692468882026,0.2522746556574757,0.2803276887842321,0.3089388637728207,0.2893887038015839,0.2861505361497825,0.301771020679614,0.2933888197291292,0.2960050312063886,0.2929574058274093,0.2884865846710092,0.2761368312505761,0.2585280430650707,0.2565399959943413,0.2430731997200803,0.251622552693969,0.2568403937724426,0.2542407262592832,0.2296976019146637,0.2043557934576778,0.2284307224332789,0.2966259392416672,0.35317492737944,0.3700778357628396,0.3442365220448877,0.280950053724724,0.2300146999108578,0.2664919746020437,0.2833661390032871,0.2338948292406062,0.1699939905163647,0.12814328999562,0.1074407162287727,0.1364716570043098,0.1642568659626642,0.1857332856315023,0.1697701996709799,0.1595985757150622,0.159518639111531,0.1619436518702786,0.1847120386232443,0.2078037888979009,0.1984809026037339,0.189097312509487,0.2006216888842011,0.1942267223923668,0.202184488129494,0.1964058573329161,0.1895065568633542,0.1606685895119293,0.1290555702952973,0.0907058816889847,0.0734333015541883,0.0550646766546938,0.0293436372847777,0.0339667012485547,0.0493123863595963,0.1095549131636879,0.090157190517135,0.0737359882194539,0.0720987386437332,0.0536446485328969,0.0988880292944101,0.1990169261595262,0.3044211856329131,0.4301331592934438,0.4980410081116559,0.4108354772657296,0.2897517018672184,0.1999521675045672,0.1620434532333838,0.134155171864541,0.0866572721228626,0.0928900922277176,0.089452815806486,0.1092409670827612,0.1301411934397505,0.1329892553791083,0.1532864969837604,0.1353234986815366,0.083647991180201,0.0283897979829657,0.0,0.0221351983840927,0.0641607450754477,0.0756110820161879,0.0973435309484775,0.1022477319217642,0.102256908340494,0.1022569083404949,0.1024693582151528,0.116181277610889,0.131370635650402,0.1508617695259682,0.1806697561352246,0.2116989242098146,0.2167757821753229,0.2212258964960538,0.2427306570849694,0.2222992061950783,0.2082468098725174,0.1996666058609086,0.1869931284228672,0.1661975458360682,0.153131229352045,0.1456901469958582,0.1497427048245176,0.1669764371260349,0.1901966082219877,0.1609286966615126,0.1583502239926844,0.1447493327534781,0.1377308724391994,0.1701183796367189,0.2842026655521081,0.4081424073903301,0.5373044919320904,0.6578408150946125,0.7489139961839761,0.6647804917305065,0.5367452986629075,0.4164637976934688,0.2972413678570698,0.2245427212877304,0.20247481692288,0.197054972600088,0.1670610581311979,0.1795903400347986,0.167680266070433,0.1595831534329601,0.1324531700108648,0.1440911675453042,0.1712141256988273,0.1652449804707281,0.1208606102291423,0.0531566922834683,0.0253158668648669,0.0283106648764368,0.0387691425200253,0.0745841489279133,0.0840104610529257,0.0895586609277137,0.0899333686972614,0.1019913178480704,0.102186075519147,0.0922021885587272,0.0999177291993529,0.1298914808968989,0.1306006589327397,0.1148060813597391,0.1023834336357136,0.1022569083405287,No
14,0.2677330920688221,0.2737226634190994,0.2841117056955538,0.2931445097218539,0.3537444264181162,0.4369640959381309,0.5245281128168369,0.6121701291529051,0.699816413080538,0.7907301383985899,0.8760252415344851,0.919516817183911,0.8529321398414726,0.7573099720155421,0.6713948829100533,0.5770542440451911,0.4799113184068222,0.3871659491957793,0.3028950810599431,0.2769439240705216,0.3176256728172291,0.3310392493765892,0.3323043370414758,0.3103300724112916,0.2661246924395244,0.2731954041592694,0.311081170440151,0.3233421618382039,0.3270887479350803,0.3055573671636904,0.2840942902752408,0.2732488597332012,0.2618178475029551,0.2606412734847327,0.2571765670387416,0.2545374934972395,0.2503458327598911,0.2365832787195705,0.2086228553030191,0.1895251553613866,0.1999478988862146,0.2272962502200357,0.2395212602983991,0.2414997772704841,0.2487552013965479,0.2682743827259406,0.3088269498880156,0.3896542539219947,0.4784202256799355,0.5640198480093535,0.6510818420453179,0.7452169987306361,0.8309799420527062,0.9246226238855376,1.0,0.9993499842603564,0.9162396638706998,0.8211934807482506,0.7355415471498077,0.6400920018083038,0.5429946658248679,0.4520129510688475,0.3635687470309472,0.2682401367000984,0.2358010366639842,0.2941172050803828,0.3035170129484221,0.2873785719619728,0.2785047891626186,0.2277816923546085,0.185574424580647,0.1915688579107755,0.2250665805228666,0.2252586549161921,0.2153225730624024,0.2148401455188664,0.2144525927651104,0.2084478633284558,0.2040674378824354,0.2148130324395345,0.2272620002301826,0.2241330680985465,0.21459745542258,0.1935148568470714,0.1664393790376457,0.1588541808685271,0.1772779329562497,0.2013822244315761,0.2303439766738244,0.2451240825679703,0.2548083128846374,0.2791947568437698,0.325095962239478,0.4006716837954838,0.4843419901202814,0.5777905966718038,0.672037626035797,0.7577480166289168,0.8360289617820555,0.8258064929530708,0.7473934507551618,0.6530293506916749,0.5571028291618845,0.4712733587814317,0.3767571920679549,0.2816164383541975,0.2416901273814762,0.2988390056326713,0.3216380127415608,0.3297223135070326,0.319695817718316,0.2661895711981259,0.2419395564947986,0.2628037854688054,0.2808748157988536,0.2750889844084705,0.2624870085418109,0.2578130754010295,0.244504435210501,0.2337255158581652,0.2391646722164049,0.2445732379150489,0.2537705288636513,0.2445346019943812,0.2241399487972515,0.194704072030623,0.1742731026044026,0.1907265794903625,0.2165755455049174,0.2469346495851869,0.2661477793272837,0.2653749905985516,0.2753159718898792,0.2791027503448049,0.2446644783066482,0.2284503944633478,0.2150943006651706,0.2163799387447316,0.1908480600344182,0.1609658306526338,0.1362444290119873,0.1278475644967254,0.1445263147796276,0.1769307510948761,0.1991680623196434,0.207175030316796,0.1959866506338445,0.1934584000092294,0.1943609240268315,0.2054951298355374,0.2152374426049261,0.2238393704966266,0.2287522739470158,0.2127485329505365,0.1826093480033312,0.1986243391345716,0.233717855556117,0.2788198983252448,0.2832722702625774,0.2448779160954686,0.1664471772813041,0.0778989179624485,0.0,0.0104065932696344,0.0878794831446168,0.1770052501263217,0.2665049564484882,0.3627073610657851,0.4475609607249828,0.4792407503003755,0.4074440559969452,0.3232193032392589,0.2589879159778161,0.2214080682173222,0.2040438736885437,0.1932756619889764,0.1758491663934838,0.1517775412784741,0.1300971878186079,0.1089815876123942,0.1096741967042516,0.1404725629100287,0.1644017201990255,0.1773241251497759,0.17400223228681,0.1635400095575945,0.1628931557413477,0.1628931002389295,0.1635087612988819,0.1738665241133374,0.1780939473152858,0.1705019263083973,0.1395437896425884,0.1406529539252892,0.1686877280112364,0.2186810563244963,0.2329406341915065,0.249040239218508,0.2043705311725117,0.1225819417677001,0.0457256481063743,0.0332448733874657,0.1095575063654181,0.1959484659434207,0.2913794217411345,0.3773645522192947,0.4715596692897819,0.5686707466378649,0.6486535664618387,0.6081800630009897,0.5235867565789731,0.4365575837106052,0.3513556409622596,0.2812350694376482,0.2332717544602087,0.2103307864117201,0.2053248475864886,0.1930444565338938,0.1790196985982235,0.1595436926445406,0.1483917015925588,0.1599223548705621,0.1810203893935917,0.1979754040400756,0.2083827737606136,0.2131217958232176,0.2100315176795595,0.2127797869632965,0.2249856636208886,0.238386158470981,0.2584333914976504,0.2747246925962767,0.2681522019470237,0.2399634179332523,0.2150736105946267,0.2030648757168593,0.2214966424974367,0.2715230352362945,0.2773619317233478,0.2515928695705947,0.1839846379058527,0.1221921261869303,0.1312741073020551,0.217221464168666,0.3117063998919382,0.3974813569921736,0.4917893847209291,0.5252767391607289,0.4526052890596723,0.3665869644885737,0.2903175429616076,0.2413017067447276,0.2327100899502601,0.2309227302138969,0.2205517385800566,No
15,0.8894116875896039,0.8726651372851162,0.8728418063695624,0.8917015558023484,0.9059591439494036,0.923872499625431,0.9207553389579236,0.9180777166131984,0.8963580562593192,0.9035612788566328,0.905289852285848,0.923219436557626,0.9104268776537204,0.9319478504457832,0.921700004046408,0.9046356493384282,0.904328027464394,0.9042529198517936,0.8927240286267661,0.8464708124396267,0.7867052485225159,0.8446123943533355,0.9228553957940732,0.8582825088228301,0.7125037240293235,0.6242484019080656,0.7200972988186729,0.8519292485622136,0.9258921195191316,0.918664274747754,0.9227935716963565,0.8918807264641382,0.8294383335338376,0.7975924223499478,0.7982082808616511,0.8688692275952876,0.903404600442645,0.9144992278269068,0.9161374859939028,0.9044283772991664,0.9044180987752116,0.9165931131792666,0.9264222153626348,0.904406133674784,0.8824870436741925,0.880981203721797,0.9077692698081732,0.9341798192793762,0.951687123297333,0.9526396761351288,0.9363276469541448,0.9034549821598166,0.8539806003984971,0.8407981309596311,0.8585722013147947,0.8678735391876762,0.8620507142153615,0.8722204872281276,0.8723461739120006,0.8723461739119864,0.8723458887504547,0.8706653457956435,0.825914547833861,0.7759468973161336,0.864980543924057,0.8700154137892477,0.7529727641905355,0.6346950972848626,0.6851788145493547,0.8112290738055137,0.9118310685716438,0.9482760192818532,0.930642726520828,0.9031609728050308,0.8590683930139562,0.8274011480449461,0.8223826773743141,0.8601687061027192,0.9301249466629028,0.9577743648921492,0.945665989604696,0.950992504688612,0.9607966512106224,0.9682602862434502,0.96597926704018,0.9545377330841092,0.9453935109849674,0.9456031098212224,0.9674732932377728,0.9841330998647296,1.0,0.9997590769687,0.9790467218861308,0.932549628975602,0.8597907097192792,0.8587723931862516,0.8584266713323361,0.8653549926459805,0.8806228937249072,0.903060026065388,0.904324411723664,0.9011955973601928,0.8789728390719187,0.8984409073295803,0.8848598040847362,0.8434923920213304,0.760349552492201,0.6508944170360369,0.6091754658608037,0.5877593073461691,0.6816654748520996,0.8146451320771275,0.9157134037210124,0.9362293958868202,0.944387634958784,0.9356840750841268,0.8666092625816528,0.81536317206902,0.8288181243245418,0.8467929426781113,0.8993678787737771,0.9022118071847968,0.8520589261894189,0.8072445750475756,0.8168532001722744,0.7519617077237912,0.6847775647483125,0.7085920519568001,0.7223799731320408,0.7074958542347831,0.7841490949397993,0.8486477311915968,0.8318869162161491,0.7888629345649534,0.6653649298378213,0.5298844718813029,0.3995959923009327,0.2635733829561921,0.1214753454047317,0.0,0.0090249305216989,0.1475563890902611,0.2902901261666564,0.3854957156110625,0.4871137004492496,0.6085348046347541,0.719183312031662,0.7825017135917269,0.7886385283831512,0.7672807299909783,0.7898083792502826,0.7955773398556882,0.7955889106396086,0.7936301511302872,0.7698736806681197,0.7636265385650693,0.7640811265237488,0.7909932672075906,0.8580144010748949,0.8901544328613005,0.8904287188763229,0.8678310125349604,0.8591540373249664,0.8428401569434456,0.8540541899600802,0.8595578523632978,0.8654284797061091,0.880382074082287,0.8606577101851416,0.8595536405818578,0.8585819037289166,0.8237676193613721,0.7522861003586279,0.7318631344824631,0.7400920423025523,0.7733160921368594,0.8206048843207521,0.8366954106122,0.8244086207819388,0.6954512812992855,0.5620217771854232,0.4456774521270272,0.3190977283307186,0.2172649604080643,0.2571115503548187,0.384135570149172,0.5192079075549412,0.5006173541111476,0.5463266398056996,0.6526295908289228,0.74927028181816,0.786438183987042,0.7659449897583013,0.7860110012640602,0.7907911659302638,0.7664221854634814,0.763609026705927,0.7611257999859298,0.735777883450683,0.7167236767758958,0.7391797369869817,0.7914468961920669,0.8377490967008621,0.831728887699251,0.8366783090620542,0.8416273545141797,0.8202564290955952,0.7921871838343479,0.7729635599315223,0.7937457949527245,0.8026793215682204,0.82596690482469,0.8216291441454553,0.8015474112732397,0.8244103334895989,0.8154723923594824,0.7956475719298837,0.767384049481616,0.7004384779355721,0.6719596789960667,0.7095109118963174,0.7203944309174197,0.7827439512267018,0.825585847690606,0.8207150176702394,0.7382379486582957,0.5934764244223754,0.4716138854695115,0.3562637172076437,0.2673305315695433,0.3085392436402081,0.4062613790415801,0.5288992885169606,0.5645481858787678,0.650527961123168,0.7453301162200923,0.7911646763487727,0.8079524088285881,0.8218091097662734,0.8159855158525104,0.8060119064401796,0.8206980056495041,0.8111884856100664,0.8144065011402866,0.7970703412252576,0.7955901228521514,0.7959103973499699,0.8124021142877709,0.8273576549730848,0.8253143452426173,0.7958583279930336,0.7664908343400922,0.7827003444185303,0.7926999730707411,0.7733279049278847,No
16,0.849219434014536,0.7752696863363164,0.677791581217642,0.5649375574317537,0.4410164479374838,0.318229859167662,0.2001035187145974,0.174975059669781,0.2862208373432189,0.4231096188077798,0.5470006002812058,0.6877011546163763,0.810836548338072,0.8739771373138838,0.8527718114759484,0.876793864630498,0.8854515598878043,0.9045275796778204,0.8651389665910258,0.8099674155922649,0.8088558365861811,0.8338917493719897,0.8346313212814849,0.8292454765572606,0.8567847275904441,0.8388615585702404,0.8155423264080115,0.8092701244589682,0.8178253785401504,0.8189085326329781,0.8252400649220029,0.8341464208227043,0.8336420054431866,0.814969074957558,0.8269849739190525,0.8352476445269552,0.8319395503606479,0.8263701109135742,0.848085772401304,0.8310529325699969,0.819681244958578,0.830066992548832,0.8190449582365202,0.8177844460725927,0.8102617807924197,0.8274549012626435,0.8160305661672007,0.7917016200440266,0.7634794792229886,0.7576075550237142,0.795127523038917,0.8394925674848164,0.8947147694039606,0.9328017601502748,0.953033508550198,0.932514778277742,0.9292212627656768,0.910469852975396,0.9060972721502624,0.9286053770433168,0.89047791447629,0.8601497892345895,0.8037607819328958,0.7107871139630948,0.6029838671989998,0.4834366266323409,0.3557092419161725,0.2465581045382499,0.2692466737969976,0.4052480323616798,0.5301329250802294,0.66705376015637,0.7995297779180754,0.9265644699903062,1.0,0.9221449191552678,0.8562842599148812,0.89279378455584,0.881936138250305,0.8811541628090467,0.8586097635077552,0.8219263498457394,0.8242745184883882,0.8351687835236907,0.8369662453954492,0.8671304181055186,0.864917004075636,0.8441073377010042,0.8477751579782984,0.8359442459576805,0.849813716854702,0.8622854602019832,0.8880312234103078,0.88418760325757,0.8724656177970207,0.8592481743148079,0.8526872283971159,0.8612470104473262,0.8555972623471302,0.8514693852096062,0.8581488412083536,0.8462370242886124,0.8300593941551577,0.8205583571897321,0.8195060299578465,0.802511406344804,0.8134349798597098,0.8087855698619144,0.7837147792515715,0.7782025249902746,0.7700962791309829,0.7353885445207569,0.7065876272526506,0.7170687320887739,0.7610522247425466,0.8117271695339925,0.857631746848889,0.8614555330912879,0.8608994435875585,0.848127317183569,0.8574536986794516,0.8489037902458669,0.8248657728775131,0.8081989777308527,0.7688166952150493,0.6816395710987182,0.5848129738999512,0.5401587357093343,0.4502533461937474,0.3078558864441842,0.1685661698696838,0.0971184318707401,0.1063156279680916,0.2015924001796061,0.3438425403784917,0.484650882517168,0.5657601812467634,0.606350066604989,0.6987021986194453,0.7310689619789192,0.7512500031236842,0.763432499970734,0.7724433418503205,0.7725576125432054,0.7724895612271006,0.7624009715271844,0.7157782012568923,0.6718217432281799,0.6398945730076031,0.6216065815924541,0.641738481952383,0.6787215365817385,0.6943081519744725,0.7087284252662194,0.7201329552992117,0.7234760169394452,0.7429814425964363,0.7294577871459458,0.7280345726346278,0.7486527668266181,0.7696055597693574,0.7725532823229715,0.7725576125432143,0.7725576125432152,0.7725741787146054,0.7773089486476907,0.7787072828466819,0.7725820594239696,0.7670592888615708,0.7571867915725301,0.7517057258620738,0.7544841210960191,0.7620692169850161,0.7620300340005848,0.7636062221369961,0.7494207028436239,0.7300137559049524,0.7053347695299097,0.7449677191934629,0.7811881170190835,0.7806457398901063,0.7890962849877585,0.7565334691935481,0.681753735318603,0.5981405657446723,0.4593411812697683,0.3345913408411713,0.2338555911402768,0.114594450408398,0.0588838667804703,0.1103544529784281,0.190150024384776,0.3005722414260252,0.4237231337188305,0.5571674631116776,0.6793836054201341,0.7556823650757769,0.7963512902784178,0.8238791771422243,0.8248510085391656,0.8226883445102242,0.8070493855973035,0.8364379816381415,0.8437221242817081,0.7962071835436735,0.7453593975180199,0.701208330949096,0.6719400227493493,0.6894646674578286,0.7052580069649297,0.7251388729995476,0.7420559947894922,0.7240040507422174,0.735686433458179,0.7462950458621744,0.7464037591513248,0.7426975154208311,0.7333267652726567,0.7460116112969013,0.7464102807826496,0.7464102807826496,0.7464102807826505,0.7464102807826505,0.7464044984225371,0.7429938587199034,0.7327210168588376,0.7309237466844074,0.7261786200869826,0.7323110614156265,0.7342513528210812,0.7368059547164485,0.7532818958006908,0.746475607655003,0.7438234831179322,0.7098986993836576,0.7098318357461322,0.7520594299999557,0.7748433762081754,0.78120462230493,0.7616481670034689,0.6865427122939289,0.6162953597870926,0.4921065879096842,0.3487859906359447,0.2109960142677249,0.101767939384143,0.0324895587684332,0.0,0.0640578277300742,0.1801801972969832,0.3002231321503332,0.4220397334300054,0.5612634593374759,0.6739915686752855,0.750826889772723,No
17,0.1224748798876693,0.1090828767078022,0.1167297237472144,0.1132108831115563,0.1125459424220114,0.1080553415100937,0.1064466443207754,0.1012061331002018,0.104467521322543,0.0969653669253949,0.1186014797322378,0.1724396316155876,0.1987350944178816,0.2101276240189626,0.2098328108055867,0.1963603344300106,0.1792194054413443,0.1719807955403536,0.1701928166858493,0.1580891078037276,0.1354039869446692,0.1499080217161559,0.1302761112284218,0.1458158838592722,0.1352278671752218,0.1242694028464517,0.1199330283167361,0.1248980252413018,0.1260084017332943,0.1293336140944472,0.1602243437076085,0.2533674277600388,0.3509747315375593,0.4488458450564643,0.5591386162086058,0.6591053582459474,0.7718156126126972,0.870396948392663,0.9200838187993808,0.8586998404730237,0.7578909918054264,0.6500766803609026,0.5414769381639446,0.4388134434532862,0.3237229811989626,0.2184062250633105,0.1483200995749252,0.1521713454001489,0.1755657309559604,0.195323521566614,0.2306173195349226,0.2020520289224205,0.195618833092817,0.1938855057519606,0.1768453263259464,0.1516145113026703,0.1529937554117966,0.1394849107023219,0.1442417041718853,0.1380320369630889,0.127352016397797,0.0942665293172058,0.1096649164446561,0.1127803010089754,0.1135475802115824,0.0957580823905388,0.0962935896249628,0.110238855214694,0.1002196093077643,0.1242828798388342,0.1024928935711879,0.1033280873281596,0.1112667109778553,0.0958544247107391,0.1304222790365705,0.124233974554937,0.1324989307756765,0.1286462364018077,0.1356166622558574,0.1340005935069337,0.1439082808310305,0.1500436424525464,0.1472414649664855,0.1531357057479758,0.2192154417698737,0.3127604254139222,0.4130744653248603,0.5260517889880343,0.6262373871194677,0.737584749894078,0.838754889251184,0.9431806569266192,1.0000000000000004,0.94801950108103,0.846867872542354,0.7344827178952404,0.6344044081007407,0.520881289880478,0.4052686443055981,0.2900616939669098,0.193813733178032,0.176999913350436,0.1996933173784101,0.2270459411622747,0.2398320780863012,0.2591709017540529,0.2819616227515813,0.2877384517084076,0.2333213925550685,0.2023929797056975,0.209708862968394,0.2051103293691776,0.2083905885073287,0.1852268411419375,0.2013144019469219,0.1910519409980615,0.1798469956152484,0.1969179568215078,0.183414260053274,0.1978194773180028,0.2047320447116023,0.1969712470708455,0.1891507051730978,0.2087414621204049,0.1882449708500084,0.1880256472044754,0.1600862781175176,0.1297740055428851,0.1274775159599994,0.1292011309254848,0.1259819943771036,0.1432519858644529,0.1537799210217674,0.1491684943130713,0.1030471806052641,0.0623691217905828,0.0751220785607622,0.0531511004804188,0.0535374304340883,0.0508083314429539,0.0575310415810434,0.0642254286732582,0.0777823759514895,0.1039013176149605,0.1161234864008919,0.1121797961093653,0.117416883991984,0.1089420905752729,0.1087520034706384,0.108720435390953,0.1039524037141901,0.1016419439154447,0.0799010042181058,0.0895277854216676,0.1206403699793878,0.1155828517852413,0.1191190702852962,0.1246906940443888,0.1413599426959013,0.1901621160888424,0.1953429014330461,0.1768741310093009,0.1603526731594859,0.1327511161868515,0.1056201671650316,0.0522106165362079,0.0,0.051179627611583,0.1468785636363754,0.2556168290430745,0.3631909191942895,0.4668175648418478,0.5717232834511261,0.5522551246129344,0.4523356361784625,0.3398234733230882,0.2440055707353687,0.1570636811721018,0.0974152645061461,0.058200951693601,0.0667724320063518,0.0573468973945097,0.0566744194767472,0.0563777628072581,0.0572014135624181,0.0609700089554281,0.0455982123424063,0.0353696069207618,0.0549553912730393,0.0199203612257541,0.027170462332505,0.0306368895994109,0.0312750689097671,0.0380927830381159,0.0141987052300796,0.0170354038795332,0.0202502965448987,0.0149872837919913,0.0289107967746744,0.0371606551414664,0.0235452533858686,0.0150550540706158,0.0285691251265851,0.0555686753993023,0.0599044941707092,0.0681440391554057,0.0727176993649774,0.0796570324922139,0.0940815460795416,0.1209991722848324,0.1156921738752041,0.1275278358165725,0.1169482126659353,0.1144867276569634,0.0798823101302437,0.0139929463194965,0.010026934688307,0.0947889932161238,0.1966091043589486,0.3033629034378542,0.4138228561573704,0.4346626450621365,0.346037680312647,0.2469451333908461,0.157754018104792,0.0863343453864233,0.0510060941252001,0.0387699719178424,0.0436901971375571,0.0477832645906315,0.0591680468461337,0.0741316706901269,0.0551790162911638,0.0549788860224143,0.0498895691564493,0.0721617602655109,0.0809331019461523,0.0967449903643924,0.1088461746412825,0.1201844292238476,0.1258726014210642,0.1193468767814374,0.109502959644272,0.0534540106354834,0.0340545979981699,0.0168882218940238,0.015515901799362,0.0273082890257332,0.0219482668676964,0.0236394961993502,0.0272082030042533,0.0351836004404408,0.0413860570216404,0.0278500078805117,0.0301039496484558,No
18,0.8759523961554101,0.8277961377621144,0.7618688736155246,0.6874275779850381,0.5990103080347069,0.5096294834402317,0.4158657093083961,0.3514203826475874,0.4159101512834589,0.514863437314069,0.6138003574218356,0.7038506012199695,0.797561661771844,0.8944982288989722,0.9706395456708838,1.0,0.9658144758073814,0.9502210832125008,0.9546916943398588,0.9549865260062488,0.93580162582121,0.9271137392040028,0.9324143177359168,0.9347714665610054,0.9347775145751248,0.9347775145751234,0.9347765386312128,0.9337056238798658,0.9225617684403926,0.9169345384203584,0.9175218499771334,0.9292071269378788,0.9172127225790794,0.8835432728864183,0.830364675329462,0.7772759309142794,0.7730502088971334,0.810902399151082,0.8501220692077851,0.880942959614806,0.8890958808247338,0.8849749575704227,0.8740094329076817,0.8534971784775083,0.8017836876777666,0.7330207870500658,0.6545574715153712,0.5680265073922608,0.4833779044641972,0.5080049854997308,0.6040171034363202,0.702994361920839,0.7932774189452347,0.8863553850172292,0.9664336348631326,0.9745126766148688,0.936445435184492,0.9164055350663652,0.9263701212033136,0.9345785027076824,0.9343220000966066,0.9196072236313326,0.908864874452528,0.9092170196893372,0.9150460214430368,0.9121439961891418,0.9050098250451266,0.8984856044406011,0.8894658035688554,0.8861791085869162,0.8868716585533925,0.8897572846959796,0.9043136088070498,0.923182145059489,0.9301089192498436,0.9256192263667962,0.8785174350499334,0.8173523186961025,0.7684477790650579,0.7815606157890258,0.8225057964306011,0.8554799120655976,0.8819636319290072,0.8767617069313061,0.8842992430921459,0.8733034443193719,0.8508681588301403,0.8033156870193796,0.7418782129689805,0.6658487890156684,0.5705623577961632,0.4721272475336797,0.4142138324388877,0.4807991999126799,0.5687922890365895,0.6648097532407822,0.7627091187570838,0.850596407044466,0.9436264211172388,0.9852731969656564,0.951152007934808,0.910896410366445,0.9110439660919694,0.9302104461928752,0.939203105191018,0.9261818418829072,0.9141932509614614,0.9039455811830308,0.897555690521382,0.9039196922260636,0.9043855716735744,0.9043856633860728,0.9045840185826096,0.909551947351821,0.905272055597568,0.9070686845450456,0.9203003514098826,0.923390431381098,0.8906354134666392,0.8688345895544405,0.862286022751082,0.8530758062783033,0.8527386914385691,0.8564645010545937,0.866505923507642,0.8568164633198956,0.8527427412011201,0.8530253012031199,0.8617702629005608,0.863346811865938,0.8719442597576852,0.8741155362791035,0.8845029600227221,0.8804674011818956,0.8687323298739171,0.8704557212995612,0.8937668306984632,0.8420968196123093,0.7486533071983548,0.6592495607247493,0.5609223006329618,0.4714375663362964,0.3770449865115881,0.2792354939662773,0.1913749333166734,0.0972766080139397,0.0262853979413908,0.0443540591725972,0.1343083162846021,0.2222928036771201,0.3175631121575666,0.4056091349178294,0.5008395473814433,0.5883200659161014,0.6743080406902173,0.7452348497632078,0.7954178116922943,0.8221394108696574,0.8350417460890975,0.8367668982714918,0.8168896625302642,0.7821335131330196,0.7414043532636394,0.7077800987246587,0.7249776847984606,0.7800656947269222,0.8436352087723926,0.8805403857065586,0.8790592853526378,0.8569709109298889,0.8477654109867054,0.8379721893178913,0.8378294565314532,0.8466937082691648,0.8526479773909168,0.8546390964351986,0.8661109812570986,0.8678580532743165,0.8631971556508593,0.8645507876026906,0.8698212571880841,0.8850583740807973,0.8757055098204813,0.8716021402888474,0.8709142105466308,0.8959537000457769,0.8402721990124933,0.7437440252148884,0.6559453470566341,0.5584215810156818,0.4592834621500539,0.3673270364899039,0.275637871296992,0.1801354309856797,0.0925463396172716,0.0213201654856094,0.0475852088700357,0.1382277845568742,0.2266295918667114,0.3223355180357099,0.4159000013502076,0.505639768825469,0.5946223699497457,0.6779590916056577,0.749985500178239,0.8099466538047304,0.8355061965152446,0.8379806286359246,0.8422558378129681,0.8253118418770939,0.7881480544470816,0.7467811063962522,0.7070613709760645,0.6869948188763577,0.7308275127484389,0.7886704168323484,0.8493889796017102,0.8772092848099913,0.8726760677147509,0.8679574184335688,0.8689302980295177,0.880754856281484,0.8944494432810521,0.8982527394849229,0.8942798418211466,0.8930540310143162,0.8857846857255667,0.8831201625023035,0.88311519309564,0.8856927584871053,0.908049654204682,0.912119652490566,0.9022051946861968,0.9126885096877236,0.8784454649316014,0.7930415621145315,0.6941752999856639,0.5948953121117135,0.4956152648943774,0.3963952802792634,0.3026850514444703,0.2126209604093085,0.1160335760962201,0.0329728283206203,0.0,0.0646328734178036,0.1563596459461411,0.2530755535571458,0.3408870993808484,0.4287114399506526,0.4976921401617837,0.5904025982887653,0.6762345074070271,0.7564791119941261,0.8171101334435935,No
19,0.7029917745061551,0.6836425583328332,0.6753774729924089,0.6795645849550569,0.7137359190493333,0.709746281194124,0.6893269881243702,0.6738982091170556,0.6444708519610973,0.6392500281175737,0.717725393567215,0.7878127925368439,0.8163956926611693,0.7945798662563117,0.7664588577048317,0.7486053901265572,0.7106316512778905,0.6999425860643695,0.648804529638543,0.5639932229808338,0.4576290518794552,0.4017785087978121,0.5053951379165094,0.6386229018435943,0.7454561166947329,0.8739072088569486,0.9454532932899484,0.8782773815252787,0.7554467824920987,0.6812697035495558,0.6768781892381615,0.6963631997081468,0.6684875993370953,0.6243376447792963,0.632840549472423,0.6727964920316527,0.6876242688789995,0.660409668795487,0.6709571666887753,0.7004421681347655,0.6852284111778415,0.6489234776954493,0.6697165430570147,0.6998733818443226,0.6847610131406494,0.7011008291098175,0.7039386775491305,0.7035462438743112,0.686129431890051,0.6529594963226595,0.6408279605154634,0.6045444367128718,0.584256526765266,0.6507074023162396,0.7290667900914585,0.7774219267880955,0.7786293604498216,0.7449205860397115,0.7142006716526046,0.7116047849437388,0.6775967533937566,0.64495239387883,0.5807191009538277,0.4783701982063109,0.4222847262269038,0.503007338722723,0.6093752586343575,0.7398158696683037,0.8629259495610606,0.9059271547683512,0.8636384557282915,0.8949897185351432,0.8741624436138373,0.8352332192345102,0.7978636080722437,0.7706929028629066,0.7936080879752963,0.8141343959960272,0.7791600034445896,0.7078075282751515,0.6335321730193479,0.618188280386649,0.6221047881736474,0.6720444582049208,0.7277142634110092,0.7487205631768337,0.7493815645800295,0.7526656360015496,0.745916124276202,0.7438904237059187,0.6906466994279628,0.6663571642630073,0.6893989582660982,0.664181491557498,0.6881073506865585,0.7626980450073466,0.8273357876732765,0.8741428986020043,0.8926340567870135,0.8530680511143514,0.8294179083637312,0.7941810988827092,0.7634356278473433,0.7272365809171628,0.6525575410126478,0.5673894544381648,0.5771475502296397,0.7026699276709305,0.8338493736620984,0.9571571087412822,1.0,0.9070750236511662,0.796975826551181,0.7808891005081477,0.7580032208696208,0.7328701057016973,0.7051893257620625,0.6612488574065489,0.6857668019923482,0.7172325759547062,0.7322923333555362,0.7325518514046045,0.7325518514046001,0.732533591805935,0.7237160001390626,0.6736733828458803,0.6633555306450392,0.6485984264238356,0.6502613038601606,0.6358886755392499,0.6351804542713548,0.6216428042936668,0.5779562234873188,0.5562238434691658,0.6013630144079674,0.6441628658266207,0.6669632112559993,0.6861161932402773,0.6800116985721303,0.681036111140247,0.5613949406784764,0.4635386756403648,0.3635955582349828,0.2488930796432731,0.1364001433761474,0.1396694556674944,0.2522700061947196,0.3775968179056113,0.4956476935412954,0.5955550548818582,0.659371774258279,0.6840068921033238,0.7239791237665942,0.7570606955049168,0.7734148937781766,0.758831712234322,0.72542003765244,0.6468079344613944,0.5706220810388709,0.5554476160687312,0.5912922553673763,0.5744120790722596,0.5713984791374367,0.6256335169859533,0.6530751583618226,0.6637216924293261,0.6539953308877031,0.6156718033636466,0.5550293968922624,0.5218800861338231,0.5208574575074625,0.5276402252787937,0.5777481374939413,0.6612206423049924,0.7222285440621121,0.7021127640728126,0.6850472155577485,0.688394039829654,0.7243735396862077,0.7546528698579484,0.7949917194496674,0.7543529087287713,0.6882352488967332,0.5877796679062692,0.4596072834078581,0.3499885077079181,0.2379479493712821,0.1023505713317884,0.0475448077806923,0.1242472385379036,0.2489991189885252,0.3764944334068225,0.4890745932604536,0.5571361674534749,0.5854447744587032,0.6198860982340975,0.6386648452516202,0.6735464156008772,0.6785068340934401,0.6282831359565186,0.5445001282463151,0.4960369265211106,0.511691754954116,0.5568971302202872,0.5786558995020767,0.5971541310141806,0.5909660189168058,0.6059346326497783,0.6066661319441673,0.6066631464220498,0.6039202138235122,0.5750780470315462,0.5512978060534133,0.5740326015630552,0.6015740578472668,0.5809215129647152,0.5820658674911057,0.5909087233827091,0.5498715106157626,0.5151432254526416,0.5069395463897859,0.5688142642792187,0.5984028412392783,0.5793661585423315,0.5789500900999291,0.6151365790549619,0.6119599228725248,0.4908351806596993,0.3577232409526294,0.2201467925836793,0.0796727142802495,0.0,0.0502586432155647,0.1690165902892531,0.2959520324719626,0.4116902407163092,0.519464346452378,0.5958248641948165,0.6145503784027708,0.6438515613579288,0.6649391559683062,0.6994144455182187,0.7074799393828544,0.6735895324702099,0.5940622154575808,0.5375756240330372,0.5351746283886065,0.5747538659253157,0.6028897545871326,0.6240322976221844,0.6156082682636672,0.5834656703652472,0.586415923054469,0.6057373976937468,0.6066659772654353,No
20,0.5882741729622443,0.5997587665131832,0.6361617387800753,0.6560460899142133,0.644247269067665,0.6222503379495703,0.6244442088866222,0.6144928805661065,0.6060769215474466,0.5834036747740234,0.5377514804499053,0.4732173362925773,0.3888588271109658,0.32235710121763,0.2489291182055772,0.2923991227289266,0.4039066445082642,0.506372563267393,0.6108319969898437,0.710179967304053,0.8173405184289599,0.911305463640138,0.9472847092817244,0.8806593247335233,0.7999802543635712,0.7146889012535076,0.6203150944244862,0.5825426063845587,0.5758186429126342,0.5535688114623305,0.5195272745212249,0.5152114859057293,0.5242871161142162,0.546380498367105,0.5590007497222302,0.564019632100778,0.5600364825331883,0.5547129789488205,0.5606932003133518,0.5509281259413208,0.5504712656317161,0.5412826713025458,0.5254076269924632,0.5224218314923244,0.5322386696193844,0.5453929456552196,0.5419361899923039,0.5485274526888513,0.5473584713296864,0.5867066348905126,0.6302633667732902,0.6935300476042778,0.7345795422064358,0.7129935397992169,0.688164502911921,0.6772529717484628,0.6599742772232782,0.6489161225795272,0.627174576968661,0.5801286834456372,0.5141045184713113,0.4262208217486147,0.3502896030933109,0.2973322432539964,0.3606718248125404,0.4735420163214479,0.5841818499080347,0.6836585389982388,0.7902960985016114,0.8904240027907266,0.9833277089662888,1.0,0.9152833901349936,0.8164315286731121,0.7192518833478863,0.6838869598755148,0.6724497841528256,0.6319783257810045,0.5966562127200721,0.5743147647895834,0.6062092159146126,0.6317642081137094,0.6373755321205334,0.6381880421920929,0.6309041550807439,0.6360409842487855,0.6361942903770905,0.6294334365123655,0.6189350822467241,0.6038503231085888,0.5986659176905458,0.5820457277816256,0.5808866846415288,0.5993835779258805,0.5889467137904605,0.5886199918974375,0.6020179993552146,0.6329254115104779,0.6578685475092265,0.6569708743285125,0.6458370930189989,0.6229580042598988,0.6167450262469352,0.6090494430785589,0.5936618687144422,0.5610742959727584,0.498598813491736,0.4083323879317233,0.3167360027764152,0.2421021499015512,0.2797451169235421,0.3832115305362333,0.4847744710587429,0.5885960636623744,0.6926096621040116,0.79177808935302,0.833053008203537,0.778158634145715,0.7627234172236661,0.7361456470316736,0.7033659874705305,0.6683329764841996,0.6337106384918552,0.6337332631095429,0.6734262179153108,0.6803680865435431,0.6793429629016692,0.6761775586873973,0.6569556045926119,0.630058482499742,0.6014963233778512,0.6069063742519227,0.6083934247885514,0.6027293841956838,0.5996430911916235,0.5648211952675135,0.5662369012624295,0.603094462515418,0.641359355678913,0.6692212999866127,0.6722213711419833,0.5991667304833324,0.5629873327233326,0.5006707704526723,0.3921196143824592,0.2923605952416719,0.1861749413137969,0.0851217158973489,0.0,0.0194706460707561,0.1020437414928316,0.1847404333089088,0.2694373406248891,0.3469254284364647,0.4348198891011479,0.5012098248016712,0.5346350681629515,0.5431557178064099,0.5526047436925148,0.5742119872802491,0.5926505915098081,0.5898756384128294,0.5571919470893687,0.5217637922953595,0.5209007547082667,0.5257094577855996,0.5383692993107747,0.5190330959433527,0.5087596951152284,0.5234319735768991,0.5380824987208426,0.5501202217241641,0.5550799816933591,0.5730750545315657,0.5755932643848451,0.5646357532449318,0.5729258314088823,0.5616572435525717,0.5380982298742594,0.508896620086797,0.5165039199248747,0.5452242895922881,0.5931157457942438,0.6170985645853282,0.6005317846592906,0.6110219960619392,0.6853919560503319,0.660526770778469,0.5594872209083714,0.4559231364527938,0.3563823978341593,0.2477206279706849,0.1620663863374614,0.1635047908820244,0.2344215383509764,0.3116322937555162,0.4050905454365092,0.495312237890515,0.5551402460082788,0.5810826350600133,0.6044723170418402,0.6178332916902312,0.6256936884402129,0.648548899603318,0.6484706231193207,0.5850577092813536,0.5390797909324392,0.4923368278969624,0.4772099931829321,0.4841111839849237,0.4765547266245895,0.4728026254942081,0.4603396204323355,0.4555171493393768,0.4533509597891503,0.4778934288624219,0.4806642092730189,0.4851087916290333,0.4909691044249813,0.4743935621490003,0.4861475949791094,0.4928521676424524,0.4867342379920054,0.4715083269142264,0.4273735598607429,0.430948648683898,0.4534876369680978,0.4815491010155139,0.50825276292974,0.523473778260497,0.5477096714876728,0.6254966365131409,0.6476872163710352,0.5584115279285302,0.4572622592324866,0.3509880330478045,0.2394432609651962,0.1404995374447364,0.0587301860517217,0.0891632149909553,0.1638551203568892,0.2460904405121691,0.3345845745911728,0.4224726552321245,0.494391092782144,0.5295889693659284,0.5345405594373438,0.5569754492314916,0.554517464054467,0.5608327671623221,0.570253362225269,0.5657032317358723,0.5396955887437502,0.5142045798211337,0.5222410850540173,No
21,0.4362323550440732,0.4351306676627566,0.4615878862718516,0.467653850906681,0.4486117926098845,0.4420015552833356,0.4562390179432625,0.4739269498305609,0.4601248305287329,0.452356909226641,0.4450295581982995,0.4126819110028168,0.3645238032105422,0.2922511783051784,0.3365830107691558,0.4671425200503782,0.6100869312926407,0.735730971916746,0.8759097426379916,0.9929509973119788,0.9867811668124592,0.8808156655398593,0.7580466813854367,0.6336723037261307,0.5276760799892037,0.473058139371878,0.4898648664960272,0.5188047920087766,0.4717289699784825,0.429734311604784,0.4295290505450873,0.4663329749045419,0.4755147792908265,0.456353919740033,0.4411994617810708,0.4296003546717624,0.4421336713644703,0.4415459440745377,0.4293852196024912,0.4291885559610304,0.4242121297404773,0.4050648693045606,0.403419721286562,0.4071780744251572,0.4462704949279303,0.5005869186775604,0.5199161375356511,0.4876142737575031,0.4672928676008552,0.4798046496153874,0.481772406510252,0.496283668319164,0.4658312545230259,0.446082878456377,0.4214815301001384,0.3721644330481406,0.3111205363532936,0.329282506452929,0.4617909890982274,0.5925253231716394,0.7265665370784693,0.869393006453175,0.9836247588936468,1.0000000000000004,0.8908499557487386,0.7696736441164567,0.6494070780999324,0.5457429988229499,0.4897595686657241,0.5225514990176534,0.5229851374263101,0.4727584231314776,0.4245581393305424,0.4504053579839326,0.4897046903527946,0.4862940846158596,0.4805842924817756,0.4719017757173369,0.4780448998274331,0.4650819270465836,0.4769535192681897,0.4728103171212505,0.4732850427180337,0.4697115924029993,0.4470131200924832,0.4582644480156452,0.4673369052058906,0.4576950795500942,0.4725197765127391,0.4803382756456043,0.5025416316315217,0.5121647758163559,0.4830769596155329,0.4781293838799478,0.4614243112595209,0.477742056477338,0.4726508944158749,0.4532079037928924,0.4107755011788039,0.3648123501969196,0.3051071401658372,0.2565302511460632,0.3207292560572035,0.4612783543323098,0.5867218842721686,0.7279370848690871,0.8685223815952869,0.9720844539139032,0.9602286575655596,0.8465792694735721,0.7174604436988257,0.6012361949878895,0.5083530859005507,0.4971837551896141,0.5349927010317752,0.5254299024291309,0.4597632336924095,0.4153777056080971,0.4568855432575902,0.4944839070999589,0.4915383704253755,0.4872959113016173,0.4828765779406603,0.4943098430401176,0.4756919476253762,0.4679168537784224,0.4548678815454736,0.4298508931240712,0.3809813921498226,0.3862591322803292,0.3930619030808793,0.3951079266150823,0.4121874406949382,0.4048891890255306,0.4046584295438866,0.4000573922641588,0.3737493313107394,0.3233125457313242,0.3241667752718764,0.3660184816737337,0.4274412430115197,0.4155224229604131,0.3962557853636119,0.4374570325829165,0.5351220659083036,0.6556096697659091,0.7359468659580428,0.6309584437404534,0.4909536480920748,0.3650842735520823,0.2231025790127954,0.0977554007184591,0.0,0.026574919683779,0.1339393540147586,0.209043787115386,0.280407697868744,0.328860656360026,0.382529259641601,0.3929466724866315,0.383006869007668,0.3780853350591848,0.393883481602479,0.4129181312967573,0.4247033691435438,0.4157415506412891,0.3926716640040042,0.3761319000992942,0.3901677603222651,0.372487118498952,0.3685057593164607,0.3813046292358284,0.3826403015552837,0.3929201000987787,0.3883760862904508,0.3864054098900928,0.393318162335563,0.3990008971896439,0.3936266872652889,0.3898741801718501,0.3533265965238725,0.3202278813140258,0.3470399242044419,0.410163678998551,0.4331787468724486,0.4194508724119603,0.434302651767656,0.5174537408283686,0.6399736202763413,0.6824053416727565,0.5590273672864057,0.4294863548780774,0.2942515617993897,0.1544505612013735,0.046675379277886,0.0306878941972654,0.1278982631705845,0.2127547060482553,0.2926838183162652,0.344536670665216,0.3818790295674978,0.3929977042363508,0.3931047287312501,0.396509433313041,0.4003130927380254,0.4012789832380918,0.4281756564426442,0.4185454914313697,0.3551920677290296,0.3261788842702207,0.336698664679147,0.3321157325238011,0.3193829701659445,0.3385535386824601,0.342170436155286,0.3516057491773758,0.3536527382273209,0.3495614297107923,0.3265527523217364,0.3533211848431175,0.3539616925069251,0.3690547007234221,0.3890183109206604,0.3771550580741549,0.3300186181956355,0.3318744586391156,0.3754523110175811,0.4063122653839595,0.3831369059361154,0.3849981542751322,0.4311531393122796,0.5258030058373095,0.6535962822508865,0.7000488447047757,0.583963182395991,0.4535502225795169,0.3098576474365164,0.1827185399317206,0.0620979303757063,0.0220621716182161,0.1100473171637199,0.195866322750787,0.2752096948868732,0.3427269071637702,0.3664399868491723,0.3776550117488031,0.3781614832179047,0.3768595502540957,0.3800246393934539,0.3703484446708782,0.3796976796735367,0.3873480875497814,0.3643945966441966,0.3472468247207847,0.352254946662859,No
22,0.5874567879433368,0.7004871373351156,0.6989861814122609,0.5727599978465854,0.5763729580007126,0.6072582232624608,0.6654602390190796,0.7019981071728303,0.6581105207803848,0.6469446791571931,0.7283710615632932,0.7532627256111004,0.7535082847175296,0.7574219653182128,0.7613594079153376,0.6798749232254071,0.658690866223373,0.6021432228632282,0.5471767908797993,0.4900118856653961,0.4424909817023543,0.393972738013562,0.4420503524025951,0.4894998505231926,0.5379737765069637,0.6415161372396376,0.7318563835729774,0.7889112918907726,0.7820256450901404,0.7527089561595552,0.7215372070176711,0.6989956689038808,0.6556980074939505,0.5914213326098192,0.4647600442468693,0.307266561407765,0.3750701309931674,0.5571268044685675,0.6991352633736323,0.7927893179969265,0.7733330972916308,0.6762421434471859,0.6540392546963352,0.5780745236988585,0.529132001369673,0.5069675952500194,0.4115677124054917,0.4020021565853691,0.4755297389468129,0.5641297429680989,0.5860179962057437,0.6130731504975193,0.6871099123647912,0.7485931357675257,0.7532322400687317,0.7312479433417343,0.6970704070910339,0.7392676535574161,0.7492366792920562,0.7396101701168201,0.7073343248927273,0.742738156827766,0.8115998913266704,0.873861391454529,0.8619277719188663,0.8116810638510179,0.7914117004271679,0.7438664619900806,0.7447370195667578,0.6882486882047427,0.6029625961642973,0.4881655543613217,0.3485850317546557,0.3984845669978689,0.5418054296979218,0.6868942008242165,0.8151811777382498,0.7830136677408452,0.8028694204209401,0.8522761336715572,0.8490522226780746,0.7800557295361763,0.7009141177247615,0.6426724864546713,0.7080906764658996,0.7866783817767447,0.7660402440501572,0.6589121008177985,0.6116353635400058,0.5862868813825388,0.5723594646865786,0.544869162593419,0.5331808322419187,0.5133971911453452,0.5338263039015647,0.5256509598045183,0.5642813442301797,0.6592993255995765,0.7515432787535099,0.8428270193768004,0.9369946248314144,0.9999806725614916,1.0,0.9637149848092204,0.8886975438596707,0.7839166416405803,0.7033863980776269,0.6062694165448086,0.46855002866885,0.316895464077672,0.2225646630199964,0.3706125504429272,0.5150855441003621,0.677516481579433,0.8414458739690138,0.8948437541132916,0.8119494671721599,0.7921158761816507,0.7418373504156932,0.7273511809609632,0.6581849765583847,0.574503719151501,0.5877927688275557,0.6932893316011048,0.774565642786718,0.7932025837787648,0.8235997253301939,0.8176371444121306,0.7556837647994543,0.7034912361055428,0.7052707083699916,0.6583320669310435,0.6259385358551324,0.5264812842092166,0.4296656822549085,0.3826288379377809,0.4565894841542413,0.5393606850697159,0.5845716757509587,0.6447389641030616,0.6442511945819129,0.5725581406051168,0.3970684386250047,0.2411816617632718,0.1076328931451344,0.0,0.0480917440224555,0.1971639936979823,0.3533152581443382,0.496844560877121,0.5878912009115718,0.6805375587052023,0.7776026494864894,0.8547555823138202,0.8585139787693725,0.8134160571805449,0.7141362611316815,0.616800112956942,0.5155701637854557,0.4311168620916161,0.401799800335171,0.4078092047918709,0.4050274028504361,0.4013367621839165,0.4178996240156083,0.4424944998647699,0.4468443510999629,0.4835089652413611,0.5248719658745973,0.5875977605567311,0.6228312454282348,0.5394834461318503,0.4550430652605586,0.5074225516878972,0.6009241300383525,0.6855926348629877,0.7231201057820265,0.6834679826343191,0.610522690639951,0.5232601035602658,0.3561889643367033,0.2183513700325585,0.1624254814237096,0.0774597303223636,0.1463715761213206,0.3093864205419523,0.4571751647538011,0.5562225336917761,0.6058332280358867,0.6483510423834362,0.6758424347107725,0.6810357944015566,0.7308651729929991,0.7098520692876589,0.6400625217761329,0.5777517146522229,0.5954644150446686,0.6234789233059015,0.6207039563298746,0.5759296132054139,0.5902941263999946,0.6397824793179909,0.6343103069238456,0.5500728000364967,0.4921574128828068,0.4511189851197255,0.4299858637521074,0.3440528812631358,0.2735289759763741,0.2429944188571413,0.3129999130307181,0.3925392963097946,0.4291639723246279,0.5208881697162697,0.5488198859499827,0.4796285959410573,0.3774378373442841,0.2694725316558148,0.1208173315383591,0.0488712547003915,0.1556588472190485,0.3142802686301627,0.4521147790397064,0.5343199963333607,0.5687607728462609,0.5911030339591425,0.6273481780764074,0.6619640471499464,0.6542210779806306,0.5665342900268264,0.451913092220618,0.3920134045069767,0.3532893673875374,0.2904580758939739,0.2520230570055357,0.3020726810359688,0.3656601590238288,0.435299634705709,0.4803177385326869,0.5247781727322236,0.5806688966924805,0.6102978239754648,0.6110455560326065,0.6255363199169697,0.5977761389776726,0.5195049377515595,0.4976471489417546,0.554676185362303,0.5212644372306494,0.4829321913048945,0.4470267217280179,0.3914991123845626,0.3255686573389811,0.2181532608724667,0.0911308297320614,No
23,0.8424002619327875,0.8161298243388555,0.7620467815368701,0.6830367526432535,0.5980211072465043,0.5155155771059645,0.5248462054972087,0.6240073107145547,0.7074091273921628,0.7787196339979237,0.8554187700699369,0.9052068551530216,0.8853464588385673,0.8633638532701324,0.8577548938810078,0.8324111027406893,0.787984840082276,0.8023609054547007,0.8467422276292096,0.8540562792688227,0.8446699867576841,0.850576340054797,0.843013126126058,0.8510083071601295,0.8387728246012562,0.8543586546006892,0.8736843061834016,0.8933128721311836,0.8993527321113968,0.8669382053436028,0.8176982221732207,0.8030765669770132,0.8536261789861181,0.9059447332438402,0.9393838241855792,0.9630630051023764,0.9675983755837284,0.9546682540569732,0.9213739679622068,0.8567359880152314,0.7798910540303212,0.6946547360568327,0.6083995273494076,0.5630446430359708,0.6430939389444275,0.7501658246615581,0.8556225983710148,0.94168974401782,1.0,0.9863550980907644,0.9324779430221004,0.9140892227049552,0.8836566988667944,0.8407542506548502,0.7974839567524632,0.8155222674737148,0.8355846504373536,0.8097651363210541,0.8042491743329538,0.793228962919359,0.7685970857210092,0.7470980863545491,0.7246613665551025,0.69991045616886,0.6800312598448075,0.6639038646710356,0.6311956494955204,0.5798491995085242,0.540788073205662,0.5581919394658335,0.5981619385034427,0.6286809419187298,0.6311309875538469,0.6202999285764821,0.5998166918676167,0.5558926498656391,0.4930166441427164,0.4072594620407188,0.3162510949027979,0.2344306375354183,0.2338044525097529,0.332870358535124,0.4333241719344349,0.5263975669531256,0.6030386808241626,0.6414890262395261,0.5955031601010905,0.57258589947384,0.5527957073285923,0.5064225992068279,0.4643815220358136,0.4508433526165656,0.5050022768759663,0.5249085698350382,0.5347791665085468,0.5361004158384088,0.544453882130365,0.5538403938944461,0.561976961936757,0.5604521493003638,0.5797819808719926,0.5925383296321609,0.5643616452136611,0.5212718426721481,0.5264127717925309,0.5807454333971385,0.639881475286165,0.686230114666186,0.7198695200777498,0.7404538119927242,0.7466505891141351,0.7608016646980666,0.7243117353459381,0.6427951018525655,0.5786415304960904,0.4980022643568462,0.4163498087505806,0.4079487973577671,0.4999339509270992,0.5846490039355774,0.6734030827371593,0.7680099926618373,0.8507068930972155,0.8912953499261715,0.834827028898018,0.7492148746327185,0.6469258852612234,0.5618907365327805,0.4610861644611637,0.3579294515977689,0.2847901392660956,0.2029609996333516,0.1703747539893743,0.2380430284522696,0.3022644766495053,0.3358190553678399,0.4291744324448574,0.5336929555969259,0.6081906483433546,0.6805113348486693,0.7028869316705233,0.6871132603585774,0.6738215464584054,0.6354607716123049,0.5843624526903746,0.527328098364491,0.4744576593865339,0.4557300659996226,0.4934561629188878,0.5303168524835105,0.5307386486327679,0.5122944266657301,0.5053036714775243,0.4985860594165618,0.501290474796455,0.4870842246365683,0.4870008036075539,0.482013800439423,0.4615588649716344,0.4074341315637588,0.3806527949596772,0.4207087207711755,0.463575254901162,0.5086053639221895,0.5310924297196831,0.5359848265253633,0.4605173251255907,0.3610831416343543,0.2622849590243672,0.1597216546532425,0.0650219614297873,0.0,0.0344108492517829,0.1196864747159647,0.2093309932920424,0.2996035550794502,0.3857394853150397,0.4659028615124416,0.5290408513884222,0.5590650506638735,0.5766414462529226,0.576567270552323,0.5510355216256944,0.5080679815474007,0.4837302640723613,0.5043522344228464,0.5520525182560845,0.5988761860142762,0.6287263550569162,0.6496657897329352,0.6727085715125516,0.69424917344306,0.7182668856934886,0.7403528213101742,0.7484751809637742,0.7666988169309739,0.7647227118229427,0.7292251612534186,0.7364484808608576,0.787595502970917,0.8369732886850074,0.8613011465237839,0.8939924344001251,0.8882088590837021,0.8031897426524908,0.6988221948271449,0.6032490774377877,0.4995902159962124,0.4085705811427185,0.378317032371513,0.4475544162614131,0.5307686851681286,0.616001410458126,0.7018042601939265,0.7849898636177453,0.8617647978235374,0.9013117735049518,0.917881345483385,0.9109012101847416,0.8887821966074863,0.8454534131157194,0.7930990332325645,0.7451482552578019,0.7479387962756339,0.793638382384958,0.8313265092473641,0.8307591011232476,0.8104642379431342,0.789691211139008,0.786351755650788,0.7856809032419965,0.7903235559011721,0.7910658112150424,0.7979392236482687,0.782900295502126,0.7345032272244238,0.7122311105405239,0.7535242933226431,0.7900575946494106,0.8063259980425022,0.8189009688723297,0.7925688656579868,0.6975488029185417,0.6020414431687175,0.4975811487589774,0.4015922756821775,0.3053048345813254,0.2625044438614941,0.3335320458193038,0.4214278632003401,0.5095615609346429,0.5912184867299048,0.6749527215094067,0.7464356666457821,0.7846844183756421,No
