,0,1,2,3,4,5,6,7,8,9,10,11,12,13,14,15,16,17,18,19,20,21,22,23,24,25,26,27,28,29,30,31,32,33,34,35,36,37,38,39,40,41,42,43,44,45,46,47,48,49,50,51,52,53,54,55,56,57,58,59,60,61,62,63,64,65,66,67,68,69,70,71,72,73,74,75,76,77,78,79,80,81,82,83,84,85,86,87,88,89,90,91,92,93,94,95,96,97,98,99,100,101,102,103,104,105,106,107,108,109,110,111,112,113,114,115,116,117,118,119,120,121,122,123,124,125,126,127,128,129,130,131,132,133,134,135,136,137,138,139,140,141,142,143,144,145,146,147,148,149,150,151,152,153,154,155,156,157,158,159,160,161,162,163,164,165,166,167,168,169,170,171,172,173,174,175,176,177,178,179,180,181,182,183,184,185,186,187,188,189,190,191,192,193,194,195,196,197,198,199,200,201,202,203,204,205,206,207,208,209,210,211,212,213,214,215,216,217,218,219,220,221,222,223,224,225,226,227,228,229,230,231,232,233,234,235,236,237,238,239,240,241,242,243,244,245,246,247,248,249,250,251,252,253,254,Target
0,1.0,0.8157502132363041,0.7110848272303851,0.6874651894046062,0.6050632557329672,0.5553050904222072,0.5631419108954314,0.5619451408297564,0.6537163886423825,0.9172942339342436,0.8740543362952602,0.7061268726053567,0.6271481842279703,0.6062734723645895,0.5034457090794167,0.5237182239675349,0.5580108701972573,0.5634886382279647,0.7158793466489275,0.9584037769020904,0.8568035356294708,0.6979364989897876,0.6538280758086095,0.6242519776914253,0.540937543506085,0.574858268608156,0.5658854492413785,0.589458842256426,0.7386301661251995,0.9768009607065756,0.8836184397139006,0.7430986595128894,0.6816823296509367,0.6310917235537312,0.5433715458142214,0.5633772123315062,0.543093795820544,0.5884199587609773,0.669016404081646,0.9089583560131204,0.8999123160676641,0.7402249571339361,0.6611753503210585,0.6167410357092358,0.5381465978464335,0.5611871853879822,0.5359218585979915,0.5426797321391783,0.6474855802247212,0.9079560542250112,0.8608314656608087,0.7047434685451335,0.6271667018972149,0.6173787365128298,0.5240686110493664,0.5253188875488357,0.5337991361864485,0.5498732379961773,0.7256531115644189,0.9507823375093394,0.8489286584294753,0.7070526180453038,0.6840140045027678,0.6351084995577843,0.5281821846190122,0.1696779151207517,0.0,0.4060563554482117,0.6980984228786262,0.8362112912000006,0.6339996142402913,0.4510058170288702,0.4427586596107646,0.425325668710514,0.4127927914727864,0.4764737382198918,0.4202768593915449,0.3949872444917677,0.6406475150641251,0.8195754829219366,0.7129100928951275,0.4637907360864779,0.4428613686464873,0.4438967927502713,0.4713551781249023,0.4206304204118329,0.5086807841699237,0.4071075354154212,0.4794359269835171,0.7165318727667578,0.8419529743354564,0.638850759756767,0.5125222043394513,0.4587629836484868,0.465917873252486,0.4350322733916782,0.4888349390606854,0.5024248568157326,0.3985488660452323,0.6486639828592837,0.8407498238800359,0.8101347756356487,0.5432989265876365,0.4840623565759636,0.4660088634983848,0.4623788990090443,0.4473726585975055,0.5246246650604731,0.3463663952732463,0.4787184253279695,0.7353888867845826,0.8582732526091101,0.6246926072536545,0.4719083936205073,0.4631624690950149,0.431306542555657,0.4062092083285988,0.500478817397171,0.3744272970131037,0.4271701185712175,0.6893223895924221,0.8335285833273631,0.6329955526667534,0.466324786979666,0.4749981786984749,0.457912045177824,0.446857244018195,0.5483624543505012,0.4268167390064881,0.4798371950031597,0.7366716627589183,0.892415263076145,0.6901516693005081,0.4986746108925772,0.4838306397698093,0.4706003834329335,0.4408624196015087,0.5311871609996595,0.4705547928735267,0.4250857448655423,0.680935361491684,0.8588805380685409,0.6994234022110022,0.4654641108683903,0.4597200056651429,0.4260930721258016,0.3611964459379102,0.4471404210382457,0.3742094372134441,0.3069202568021669,0.5870842142024228,0.7846046026772995,0.7069951876429648,0.4731330368843833,0.4671437311513506,0.4467621443381726,0.4210996813761327,0.5046698356364465,0.4604531462786303,0.4166483455401089,0.6410511704031188,0.8197256774909594,0.7175824673273605,0.487319747148121,0.4904683065311794,0.4804789986913387,0.4812330565261615,0.4490605642885752,0.5374854233560296,0.4107785559021404,0.5680535913278693,0.7802981386077397,0.8126295811649022,0.5492019689730574,0.4852024631736999,0.46266426600077,0.4492341924621894,0.4469347109310928,0.49250703840451,0.3223142845027738,0.5117239176228616,0.7324811386485028,0.771113500966254,0.5072487579436609,0.4692632324422083,0.4991513594776502,0.4715811981845617,0.4907379463453463,0.5560070172022309,0.4302988220232522,0.6267664174666492,0.8098665434604122,0.794950365173527,0.5268784136647988,0.525656890166232,0.6253779191896833,0.889476103836143,0.9142190132520308,0.7753875356492008,0.7200455148452893,0.6937846240091186,0.5819579435261799,0.570452205602137,0.5894351869106629,0.5580911246060318,0.7472169374779565,0.9148238288282742,0.7632305245662723,0.6410532271026419,0.635477560230775,0.5766616396449633,0.5294455544405396,0.5556250167823862,0.5696687818510058,0.6172282801871454,0.8863656068511605,0.9230124961738096,0.7736470221138512,0.7071207982191803,0.659482502243085,0.5580240403862207,0.5910006877388012,0.5704518241714176,0.5844716464516986,0.6051715175954917,0.8746416723269785,0.9116522232176588,0.7503966662190384,0.674133267853509,0.6452713647597053,0.5623791670479044,0.5417793638485411,0.5449517815529683,0.5628592335944367,0.6752492609933216,0.9129773850323089,0.8157698485118834,0.6497614886171252,0.5729043544232417,0.5778578636091072,0.4717970547006542,0.508668814189464,0.539701947747536,0.5601588978549623,0.7389126388098708,0.9592183501821734,0.8379910209780137,0.7204244385985228,0.696980482535158,0.6477663234916413,0.5575834311760737,0.5663362502704645,0.5781810346195217,0.6237511029821583,0.8885354797183282,No
1,0.8618550481253906,0.7506140550984615,0.9499848436386245,0.9190089618400684,0.9236095664857688,0.8660189219698147,0.6986751799482247,0.5065246177679312,0.6823786371234559,0.8726772504102338,0.7950008126730439,0.6156110123559009,0.8693831027854717,0.8984256246554128,0.926353365058436,0.888929118991407,0.7765790346786392,0.5528132695959118,0.6639108936201188,0.8654811767284536,0.8664508477739474,0.6603654745276608,0.879501142026645,0.8913413411662909,0.9125165352269056,0.8844272074614961,0.7564957569000481,0.5298688758081529,0.6658346401854087,0.8853910808743026,0.9077869360683232,0.6205999378972287,0.8236393855791424,0.9341361125247,0.9246833024939104,0.8879881721958389,0.809512638416519,0.6152817610170269,0.6819319249487801,0.8881841283114809,0.9044873285660456,0.6929264386655161,0.8975965018364298,0.8845470775477668,0.8793384941747417,0.8365036445371006,0.7421856776042286,0.5134518160585897,0.5406537175802888,0.7702121766671288,0.9156654005728484,0.7093046055598715,0.8382221944701316,0.9022129769049316,0.9005497610544535,0.8917005344585007,0.8328614443835991,0.6552974524079895,0.5173725861096086,0.7310889205088662,0.9090076018770844,0.7748288311005307,0.6882874078985128,0.9198335580735506,0.8811594631451216,0.9019667916172298,0.8699321167521386,0.7816315278666388,0.5514335971608781,0.5843084148644699,0.8030778404345202,0.8909602533513561,0.6294476088675247,0.7575987406196905,0.8397626496864588,0.8824469403866266,0.9321005174144892,0.8541200733914209,0.6865832638522809,0.448945230046107,0.5874480412978065,0.8034790673072814,0.8273397057857217,0.6079505280736386,0.8549103091856378,0.9555150852029356,1.0,0.96517570865063,0.8966715047186486,0.7121779296229596,0.5852718991114296,0.7822661218391482,0.910529214479185,0.6846270087815982,0.7018164759686871,0.8614736525599698,0.8307111141669075,0.8222522900853964,0.7556232388300963,0.5926274489827046,0.3888931216077236,0.558331387257399,0.7355756211055307,0.6161186117394573,0.4365011096690068,0.6815958159246374,0.5717878971075727,0.4687205140362533,0.6152130909541993,0.3497205613600702,0.0,0.1881852569031381,0.5793702936047636,0.5641952883018106,0.3528884886734598,0.4096354317795769,0.6546124017465349,0.7424057213248949,0.7747848943987301,0.7598890734366885,0.7292936194012185,0.3257770245464335,0.1366794349384394,0.5361449843742099,0.7899100867907074,0.6638900410847961,0.4930174025490701,0.6917105724704629,0.851583898868995,0.920523847978692,0.9274616030120022,0.8782851455980158,0.7462693103013858,0.3066546556923313,0.1688900750076882,0.5730584434411432,0.7268633429040869,0.5453116801673943,0.3725156655550743,0.5893956909509337,0.7726013494694726,0.8546096976098623,0.8497294150354993,0.7571434532622152,0.7535285362665034,0.3983049773787788,0.1108500521907818,0.404468192085486,0.7504036129666847,0.6798542835012988,0.44886621884427,0.5134287289984276,0.741488403908672,0.8191796557351094,0.8430995165287269,0.8026167967082363,0.8344435283639755,0.563744215969791,0.1958423330700609,0.4285275956576053,0.7797188236335586,0.7110291152399408,0.4762328523677679,0.4794547509504856,0.7226046844308442,0.8049279437231873,0.8402865797797281,0.8118764847053925,0.8348641483425947,0.645257378786888,0.2555852042425255,0.396406045210246,0.7486580041557034,0.689894184791753,0.4591226362885798,0.3981056541464727,0.6455106142128357,0.7577916775228419,0.8082708708114321,0.7945480418911557,0.8374717038846837,0.5572842982186206,0.2529590900288099,0.5617121920017893,0.8421238344750432,0.719080126062055,0.4985429972357453,0.61114976975769,0.7741902572895072,0.8360465307117302,0.8539348543384873,0.8639226243113982,0.6584403483089223,0.2456949735641489,0.3674003930974638,0.7727047574704002,0.7794125982835882,0.5627428028920913,0.4570492039720213,0.6998229805889358,0.8252310725557415,0.8520238986260908,0.8165911950970579,0.8062979054295325,0.4415095494487417,0.17220659497031,0.5184910335236148,0.7827147108728698,0.6608914099695777,0.4651257079365289,0.6222545032283808,0.8049659241100509,0.8611223454203363,0.828903236040833,0.8148369354961029,0.5057776407519148,0.2019335557703083,0.5089836912303605,0.7643009632459308,0.6231847586784647,0.4274209785436222,0.6008833160010618,0.7962937154119483,0.8575987209798202,0.8553135443536752,0.8674532543192073,0.6464204549603441,0.2807014680035058,0.5024115405600567,0.8160194266217542,0.7021560720883941,0.4656628770981712,0.525807531557902,0.7575615078807525,0.8147121672803936,0.813942665161369,0.8269857243769825,0.7282194321557827,0.3384560686553812,0.433712153701993,0.7977699185704394,0.7440018645298019,0.5628962345254536,0.6921480903933317,0.9001732484051375,0.8761030621008428,0.712558236073074,0.9178508208537322,0.8799489167820438,0.8843787243585446,0.8535610762148154,0.6981712812303205,0.5223528681008229,0.7138894273752017,0.920657019393654,No
2,0.9615406477291746,0.7690117729135135,0.5936883085320379,0.5630886523433478,0.6424180994942237,0.617545287717916,0.486565162166908,0.5181603085059918,0.5015644420855798,0.8002580935881141,0.8930030905288517,0.7206284511407905,0.5504489103275847,0.5609038525214043,0.6408924059389753,0.6439030190605233,0.5197399114001131,0.5462498782447218,0.5663211778893444,0.6835322667496198,1.0,0.826544184855659,0.729420432605353,0.573403079428386,0.6538732123907902,0.6307317173432168,0.5431989641893837,0.4286695789019172,0.4790137387484932,0.4974996501277116,0.8719611257079807,0.8240966781048917,0.6758538594922823,0.5175436852976913,0.4992796188221331,0.6178057177568141,0.6355463012057156,0.5304816170104414,0.5291355468081207,0.5501634945757958,0.657442522856889,0.9715161549550246,0.7800158098959544,0.6567989069600317,0.5454295118452195,0.6358416213253903,0.6190265697941899,0.5478016068810181,0.4340666135354922,0.4962673492206413,0.4481067934686971,0.7012985047085167,0.9598213050835088,0.8047718086495941,0.711879682418612,0.5754444927038089,0.6684945910574882,0.6668094482815716,0.5528315850320702,0.5286689498557284,0.5729564074802975,0.5291286959174055,0.9126050433804074,0.8635552064779377,0.7421760027799538,0.5744689169518895,0.5786510095003949,0.6246586849449951,0.5954381063598562,0.4516051552395552,0.450653352259633,0.4779193979261542,0.664483871514725,0.9167727106348024,0.7337047439999989,0.6067464943366954,0.5185130314715405,0.6284597794446727,0.642314859337112,0.5560970285434612,0.5401895691314427,0.5527079375873765,0.6028586998137904,0.9846161445816066,0.8477813221466053,0.7287610941152032,0.5181165873923774,0.6008569265014732,0.6369061675314915,0.6040055715829218,0.4706726778471224,0.5096228724750631,0.517392048711613,0.7052810852305642,0.9890149519655984,0.7748694426837073,0.6290853165464481,0.5130903000255791,0.6446054088192428,0.6726063540868505,0.5469675747578089,0.4867040521155936,0.255141246349662,0.0,0.3324967205784821,0.5646647515374759,0.5485395295539401,0.3965998168602702,0.48272689591826,0.6583702001507761,0.6849273407303067,0.2757178327250411,0.2699290791302182,0.4310544093903905,0.3549643751657543,0.4690774939192921,0.507091917261052,0.4785278659548226,0.3637215227816086,0.5671023528417369,0.6932938074029988,0.6116074168077774,0.1976243094132335,0.3586008465440664,0.4695844933163111,0.4331217259566164,0.5417251807956478,0.5498675624122775,0.4518833085270706,0.4330478300407803,0.6111831398327165,0.6646241948010201,0.3936968488739136,0.1623767832088041,0.3577582145669407,0.3163731719789555,0.3977228155080774,0.5108031439476455,0.516299014898332,0.426082165952824,0.553925945667249,0.6682922373774494,0.6530762471655258,0.2279272616590213,0.1883467793916069,0.4706024344410586,0.4275282012412491,0.4839442182616369,0.5773427504820767,0.5740223019215551,0.4626136858234493,0.5758168725357566,0.6968022396731874,0.6991133443442852,0.4754223258595522,0.1452865433488099,0.3614617005501475,0.3545375185348032,0.3802841928080416,0.4976620167644334,0.5217081289488217,0.474754070529134,0.4259105553203879,0.6245145857342123,0.7079718540483606,0.4392688172731565,0.1260447914175739,0.397961184285776,0.4305675168546612,0.3932917234357287,0.5325124189327726,0.5383685491050758,0.4192298899979807,0.3938920984453817,0.5738416162047462,0.6237042590877295,0.4209219087637752,0.1227778795575189,0.3479933930585499,0.3220409773866244,0.361671655497366,0.4965625682130143,0.535869580187768,0.4623450582528603,0.5174960471676564,0.6871142253732021,0.7557716398519978,0.4570291033359073,0.1576184780216172,0.4426458976056522,0.441425688087973,0.4189870049204565,0.5542019453180154,0.5566630018042664,0.4710785360190117,0.4184313904800265,0.6019041245701788,0.669793829082439,0.5055635937040046,0.1502659955848639,0.3732912153828378,0.394766968423109,0.3916175234448071,0.5298143491911427,0.5408093197026589,0.4431045099209489,0.4863681119056924,0.6681608369618992,0.7632419103757635,0.5448373371004425,0.1977158501339824,0.4397629853827438,0.4413776707668342,0.4195767546021951,0.5410201993587238,0.5240661791445715,0.3942746085236024,0.4669359972352525,0.6398400478215032,0.7043110047722365,0.3740519556975492,0.2288678086257398,0.4430397814861098,0.3743188212090245,0.4388193060352479,0.5270133033796114,0.5084221055840108,0.3729243195195448,0.4320858822435682,0.6430279764396709,0.6735435760060375,0.3016897323524974,0.2195743884285277,0.7337673184899054,0.9580370548641924,0.7708108593706555,0.5832204011724293,0.5115579827856083,0.6185718645204186,0.6281651576410074,0.523179761905411,0.499334520400104,0.5491444371061087,0.5748771537136816,0.956835047398743,0.8556420638721436,0.7023418288797161,0.5101532274449023,0.5688396890994603,0.6273842641163019,0.5824654505999005,0.4962861996457062,0.5884607171684078,0.5712765718058912,0.9165680980058406,No
3,1.0,0.8629103280756683,0.831526911604469,0.8029174949618989,0.7812196564354932,0.8406683490667297,0.9288577252956484,0.8311202480374082,0.649624569137595,0.9199763750732686,0.8689776976001213,0.7924539019213159,0.8169294585382207,0.798059068743806,0.7498967544054462,0.7728126370128661,0.7937096351777075,0.5438060139623135,0.7227909628158815,0.8143866973647174,0.721017233685167,0.7788815923923118,0.7849776164188138,0.7287873652665096,0.7651798587656606,0.8408639933235635,0.6438192773837548,0.747726359306994,0.917774020600838,0.8421173916189209,0.8671098596541316,0.8453026464658469,0.7851188100358368,0.8431985184484492,0.8914195926778699,0.7098177554644685,0.8299508164766114,0.8746097670564383,0.7938861195364662,0.8201898105638352,0.847056244620684,0.8059676968777225,0.8050918541488494,0.8961173799954678,0.8601660893697671,0.6047134686750799,0.8660085941302995,0.8938789947457506,0.8165873231841378,0.8588761345960876,0.8429167497136749,0.801355313363215,0.847404244489876,0.9371781361118344,0.7209073130163923,0.6439318818541642,0.9421403576554872,0.8939396663965367,0.8514545661913835,0.8641585156257481,0.8445895673489101,0.8095976639346483,0.8333685283633336,0.8608374036445929,0.6921540644034088,0.681451612665982,0.8851943271758183,0.7944019371966902,0.7915655436814424,0.8348976847574603,0.844926007708251,0.8224583020924636,0.9053898267302573,0.9170831683247904,0.6574390159032002,0.8450354526536743,0.8939507589526143,0.8085906454271687,0.8415901164619712,0.8292739724935467,0.789419713803873,0.8103874074477715,0.8878526239295317,0.7467770401706728,0.6393060590476649,0.9001095606968947,0.8297136461449441,0.7931173430052656,0.8284655589301781,0.7967617956942505,0.7843741332893446,0.9107147633244606,0.9478115699237696,0.6503252726682769,0.7903146488022794,0.9981894346524663,0.8779353969090944,0.8654527359574149,0.8636730123580043,0.8274849217840865,0.8310631625135518,0.8971890176320114,0.8438100186033193,0.6807810927463183,0.9553291320949132,0.8828615922716296,0.8025544824867592,0.836668797908835,0.8255938269725767,0.7641814266632774,0.7813684222572466,0.8864152220276429,0.811992337382974,0.6269942678971874,0.8851421230934684,0.862676490034056,0.8074635567991333,0.8156239014822884,0.7662595206663387,0.7182196312467224,0.7666752398952825,0.5752446917620264,0.1284870747287625,0.2124205309586777,0.6689817666922786,0.7765113957082201,0.6867943632287239,0.6960986709447381,0.7577462864977642,0.757510484929186,0.7203842006908481,0.7667284386424957,0.459958038486401,0.2437832748678317,0.620016815301859,0.7961909563360896,0.7430373142118967,0.7474178414985739,0.7955335582422305,0.7996682274090596,0.7793539056328473,0.8043211260316969,0.4414027050620759,0.220169062346057,0.6191086967656481,0.8560604890414929,0.7515212505374245,0.6966366211127606,0.7414089525753758,0.7459589597853236,0.7003054471547268,0.7478785154321619,0.460461576395347,0.0920635556485336,0.3805821281531116,0.7487028144926273,0.752555743805297,0.7005667324232441,0.7529919635401727,0.7716562964299354,0.7371412867358669,0.7677362582812126,0.5409666101545882,0.1627449449066844,0.4287942681312242,0.798535255193928,0.7973652250546555,0.7378283053715555,0.7756305119867273,0.7560473392686284,0.7007740613219533,0.712678929393761,0.5522976458411204,0.209478621964593,0.4613448125561721,0.7454729942743628,0.7535873247371732,0.7307067234000493,0.77214501817173,0.7905668647850508,0.7628390986409759,0.8044984430694693,0.5600623594591543,0.1657560984144135,0.4152335046397923,0.7935471070492022,0.7801318974451137,0.7197197879555217,0.7583859868990812,0.7796514395944718,0.7347774430705178,0.7653389686519652,0.6082790573264751,0.1738259961270469,0.29031431358661,0.7134269380416636,0.7899037424038302,0.7110784049350785,0.7342993684481414,0.7721275130558132,0.7310781669046746,0.7104295599635662,0.692493004276951,0.3338746129411727,0.3578968626966219,0.7315485207609282,0.7946293682538612,0.7160613051782558,0.7392205507781981,0.7935398537065312,0.7678469112950337,0.7751507768731281,0.6152790703485773,0.207852126812436,0.3751850178432065,0.7053521707483048,0.6913613781133492,0.6525240374801435,0.7179940346577998,0.6897314341178866,0.6313900798279573,0.6507291578881698,0.2828215843197768,0.0,0.3651069134827298,0.6918613603013593,0.6835036656889777,0.6866179690493763,0.7348025259892341,0.7450757485758177,0.7052961905725925,0.7754900689187441,0.5043202101410995,0.2289700566486723,0.5880309270023387,0.826906286557286,0.7575348556468198,0.701361757858951,0.7260592522414426,0.757266398655096,0.7590280564863603,0.7859771591161682,0.4606089592327129,0.5071205147435802,0.8273456249934732,0.8051131302359238,0.7464193848135756,0.7820253672283313,0.8162249775450956,0.8555142398036937,0.8240737754656857,0.886110867848489,0.9482989105284388,0.7537834028846118,0.8666957935237312,No
4,0.9688689344985052,0.6848047238369162,0.7781375410431224,0.9848257484521928,0.9999999999999998,0.974509026968782,0.9429139453887212,0.8793504291001348,0.9286212677769704,0.9427747798006892,0.8861645429101943,0.5442192766963669,0.1433819115898944,0.3048321441044306,0.7546510379783784,0.9398141995193574,0.842409648209548,0.8911867530024733,0.9102627107163108,0.916257439636089,0.6991359080520181,0.2694230953352952,0.2229387480965969,0.6572492701189616,0.90443706357307,0.8405981349968898,0.8802217275824231,0.8791811615224614,0.8413736099528417,0.6865723483585715,0.2387463244825807,0.0,0.3611911893853368,0.7603541535627527,0.8196645267273914,0.790481393229209,0.8735105170610666,0.8758711853099619,0.8293793983776994,0.4529213093412731,0.1169950125200001,0.3880357756555119,0.8092056467632891,0.8842269383106405,0.804493200486522,0.865910131826934,0.8517365604763458,0.7630307642938181,0.4001850570574148,0.0357527394030821,0.2659922303852391,0.7029217764833346,0.8397876994332496,0.790287428126986,0.8919059655899433,0.9261861712217828,0.8898008421986454,0.5692194623624551,0.1299789875964641,0.1840577439034338,0.6240982975003122,0.8862570394185136,0.8360898953055262,0.866941052423998,0.9328585533441612,0.9234393396860432,0.7800146145955962,0.3452056817233802,0.1048420198134936,0.4644792311748298,0.841180831915463,0.8614801009545532,0.8432099619194788,0.9141460374687232,0.8857405804798686,0.7596403156948537,0.3451429203352563,0.0642018011625893,0.3751072626592515,0.7749541266412321,0.8642448579099298,0.8432394000982251,0.9097423329233448,0.9089408381121664,0.8772592091966385,0.5320805933637429,0.1093395127155139,0.2189078065627336,0.6729724198563771,0.9010378367363197,0.8389502884940183,0.8983529873924374,0.925057059324293,0.8918623132936105,0.6535349427459345,0.2112710308001364,0.1728469802869661,0.6000374575511298,0.8734167813361087,0.8394959986335999,0.8629461509009044,0.9124274086733676,0.8877105790733693,0.739452916298388,0.3072499938980342,0.09458643101487,0.4703356972156136,0.8362151973491951,0.8542223904312503,0.8722911956410735,0.9392439102448396,0.919249739103092,0.7868561943774361,0.3545211937028769,0.0135781632108835,0.2821804924658018,0.724602825596137,0.8837397151041568,0.8394813659836184,0.9204944392045558,0.927349031874954,0.874738666352824,0.5324205791240573,0.1299512503179407,0.2809189627092019,0.7179669405460041,0.8718570976315261,0.8219425691560178,0.8929088299222976,0.8824472828081087,0.8582690987061989,0.5870008761726373,0.1458347084431723,0.133506396383924,0.577803107157532,0.85080262666247,0.8004034963550957,0.8624001695961974,0.9188521604403624,0.9072581625269598,0.6613215230200657,0.1958655612258986,0.03852719921381,0.4454856487542427,0.8328171427779145,0.8799803702616973,0.8638276040708888,0.9074741468948126,0.9572863498026488,0.913417516028985,0.5962780451557315,0.6018157715862769,0.927229350322916,0.9797859877058646,0.9740342903142156,0.8832238287531082,0.8999227715691569,0.8742021674611553,0.553060063015087,0.578522605613911,0.891982096175991,0.9359039097044206,0.9611537525953876,0.9023771914785964,0.925423930891818,0.8989504973007294,0.703784688802463,0.8888481685731706,0.9823876860344628,0.9922820498849444,0.933476925467862,0.9294691422902102,0.9041941229190268,0.5948426941208607,0.6001065337809246,0.9247405606057552,0.9851604940414902,0.9898334456256774,0.9103502751103943,0.9397624765685636,0.8673725701655555,0.6416312720351709,0.855321049884419,0.9569824266146284,0.9782242896618458,0.9256761704771514,0.9100814802215932,0.939499157116064,0.7351597121438471,0.818774259389877,0.9668793543023406,0.9853633748338224,0.9514327741387498,0.9127752511232464,0.9665941886880368,0.7413787279250164,0.5588275904632392,0.8685919855520969,0.9738091447263162,0.965892236368732,0.9215987308855248,0.9112557009943788,0.91009213320576,0.6499717079752816,0.6379678302593823,0.9053381663544522,0.9624020959068392,0.9623855152633138,0.8921067112960681,0.9582728084078328,0.8627111902885576,0.7155195350223003,0.9423324937205092,0.9911752711209864,0.9843212792543083,0.8960762406917515,0.925053686551106,0.925553625056774,0.6179502191460919,0.5877558165911243,0.9177060521190674,0.984670989720265,0.9734033396890436,0.8825557069589787,0.8869482908837358,0.8649436678305717,0.5814319949548632,0.6380847796198215,0.8754639237650246,0.9146267712537222,0.9136336946479012,0.8783190867600965,0.9713160462600372,0.8341935571437713,0.5354602839739111,0.7558597615980613,0.9489108921538364,0.9359892847194652,0.9148285552700066,0.8554551382476394,0.891220872666689,0.6954936721902372,0.6380807087382043,0.8864261845258274,0.9105874096922209,0.955426246266718,0.9015646976683652,0.9552324420993326,0.8827024103319918,0.6992653606686097,0.9354892123334247,0.9774575597114664,0.9748565451794524,0.9011408627437858,0.9623425396044658,No
5,1.0,0.9056198889014956,0.8890370486157443,0.8474430840997605,0.7906732237282067,0.8270721696116944,0.8412321154748016,0.8884249057210726,0.8645066702993124,0.4685863124057784,0.1198903655481239,0.3186287792860781,0.7464122009898483,0.8873497736317134,0.774168202353024,0.8341677994884845,0.8521844251237839,0.7843637002511604,0.8353070184152359,0.6688060691145482,0.2291631273853879,0.0600689897719622,0.4232579811423743,0.7903069015988039,0.8146605742902394,0.7995127833097105,0.8051109118192626,0.7685308807695929,0.7849217208480243,0.7040161034200781,0.2814063388586446,0.0151085847038462,0.3316580087672912,0.7319144991093748,0.8089453719012986,0.7801309183576258,0.8277429887727293,0.8098574082909359,0.8001061808509237,0.7610252951496687,0.3539020055084477,0.0189324061924073,0.262623106771329,0.683599425007201,0.8104270970462514,0.7857083313339349,0.8300805806902009,0.834852049825117,0.8281237469426413,0.8578265833694706,0.4971440826225174,0.1059698677628345,0.2472767063693294,0.6773620004752835,0.8342496832944838,0.7158065699331596,0.7750032030172666,0.8266666223258051,0.7929654100814564,0.8380145728937157,0.6798284444796342,0.2607029280813221,0.0,0.300610056575825,0.7188058359233155,0.8198451053265484,0.7769910620668604,0.8460995837937749,0.8616252011264006,0.8396698611617851,0.85136235835353,0.5048326804599291,0.095447490019067,0.185906413296622,0.6170328069173839,0.8338402432267561,0.7610972538525421,0.8009841179980345,0.8135663350026895,0.7876288825782761,0.8411198163908645,0.6681928137249541,0.2270882418841425,0.0704251996466586,0.4511101706943051,0.7949846696389956,0.7888039005465212,0.7966347525343055,0.8399652839172939,0.8175671547560109,0.8654050581704379,0.719267429372377,0.2787995347597291,0.0368295826253018,0.3697080827271638,0.7639875990283077,0.7998525548700709,0.7527310871897935,0.8214856879654734,0.8373198807722383,0.8000184102636262,0.8387462590797482,0.514475892527046,0.0782758407893297,0.0692047178416089,0.4965155841336749,0.7795551842904999,0.7485839154079902,0.8312433671471234,0.8623908603731701,0.8295761395847835,0.8567757243911073,0.7451811209402633,0.3132629681165763,0.0491487524531205,0.3650787790443618,0.7586110150616062,0.8051179186917216,0.7753069052117311,0.8318602350749659,0.8518522014544597,0.8037495321313161,0.8354175489540968,0.5090793684038625,0.0960760393504037,0.060864962443443,0.4654418271316277,0.7908456341109992,0.7662772101527638,0.770943763198776,0.8283063345794072,0.8015604427878827,0.835346797021311,0.7198936683116984,0.2996775757817148,0.0160798828300116,0.3131195117146751,0.7129793092806321,0.8055978004113283,0.774366018693217,0.8381296845916503,0.8843117614132875,0.9015957208821698,0.8675851686399364,0.8271809672203799,0.8616383732597005,0.5976871943020824,0.5332989613113323,0.8638642230869903,0.8886916082085291,0.8872176680777523,0.8725067484912451,0.807401520584711,0.8592529401997676,0.8083518964597466,0.5231837000882126,0.6891446934864466,0.9206442493418192,0.8755659247298425,0.902494082745612,0.872509079878606,0.8232470648435354,0.895808009697655,0.7202474196722438,0.5135205833574762,0.8147382867227481,0.9339310767970208,0.8950940481334905,0.9183959152253686,0.8889530544324268,0.8224032696875131,0.8390614740667993,0.5757828410503972,0.5481066174743862,0.8762504542669595,0.8876473642032666,0.8849369904098304,0.8755598969530533,0.8155830913005647,0.869654308076668,0.8298249586555387,0.5718871708601151,0.7731136218502638,0.9330991291880968,0.8837254250284635,0.8929875514042417,0.8518753481994245,0.8489023953144593,0.8782926469732381,0.6228216280792344,0.6709086923844131,0.917042076715084,0.8584321824981896,0.8710361942748485,0.8572494388274304,0.8245444188991354,0.8871737770273181,0.7884285909858352,0.5248028495593927,0.757455038384388,0.9438554167802036,0.8994317016456476,0.913004742405052,0.8926486078883306,0.8283979693307514,0.8938805102871329,0.7130288972243378,0.4979331378194559,0.7903630668559355,0.9042353327806766,0.8634134651914148,0.8766102421067873,0.8201800031530843,0.7849316083912102,0.9131881754498976,0.7534525289309882,0.4333281016591047,0.6417656193494278,0.939330688945896,0.8884944164056044,0.8991265697569512,0.8831067325721861,0.8370389364553709,0.8760711194179948,0.7231669589922972,0.4052258472201903,0.5995463239638982,0.8936376743464908,0.8500978002351175,0.8853835344012358,0.8816017268184458,0.8336353039630343,0.8796159160970506,0.7782052640632017,0.427044282222298,0.4549983942272823,0.7861139903225726,0.8490288741097293,0.8303573270641401,0.8605052631885391,0.844717962500599,0.8870221049554737,0.8172248150104858,0.5183542209750164,0.6529025024934926,0.9028663638499024,0.8495672407601912,0.9016284311680612,0.9032330308322036,0.8422520240580064,0.910762427882762,0.9192802321730672,0.5898642512291773,0.528862364229061,0.895210755972016,No
6,0.9522376429295782,0.8995269360774525,0.9044585644308564,0.8755700594488698,0.8484388620979868,0.7351018149018556,0.755354128981194,0.8891373555022759,0.7600104856912608,0.4364232249981115,0.5503629568729551,0.8780766105824185,0.8416942946700265,0.859373396406671,0.8553998238902754,0.8447765160766043,0.8205796856663217,0.7062427561398377,0.8055207158455939,0.9017059194339584,0.7081835028464263,0.4723676355670649,0.7524986480288547,0.931513586900895,0.876070212243484,0.9056414650785694,0.8825218121315088,0.8414351734951064,0.728883410522358,0.7253848995470893,0.8548884615753256,0.7498234812286027,0.4480526977937167,0.6134944802176963,0.8767587532833863,0.8308939523327574,0.8768298811832411,0.8777533536802957,0.9134071885536386,0.918436323660898,0.7669331345474588,0.8359000917126693,0.8010334746720797,0.5086146211929088,0.4551618751615489,0.8025788410722645,0.8309799464271854,0.8492052234640473,0.8976071667850003,0.9097231526599624,0.8739113535207552,0.7894706175797017,0.9173516332748411,0.8765123023147585,0.5624776612670535,0.3382795526939437,0.6518782948053587,0.8456171731888322,0.7950543796031739,0.8021225417230138,0.7503630373634107,0.7748910102982596,0.7486942906879686,0.8571683629791456,0.9206823090428992,0.6686928913310193,0.4364440858959253,0.7397499630799733,0.909488005997634,0.8773401587617742,0.8992156455669702,0.8927929900297498,0.9077978272909396,0.8438456634942209,0.8169022029453687,0.9431341302244364,0.8277779286794096,0.5127543738409843,0.6191040158528469,0.8913038820456058,0.8399673994708337,0.8819112827330742,0.8660881292930074,0.8457388380265438,0.8158757763745683,0.6928773629978047,0.7983621660406066,0.8390312900838575,0.5810038615989752,0.3938417531497364,0.7285394037905053,0.8762141333017079,0.8588892310261835,0.8972789919432915,0.817845535351778,0.7096829805844083,0.6419199055005598,0.8203531185120883,1.0,0.8933143167400928,0.5601488052565373,0.5987025673654747,0.911090683995115,0.8838265517169446,0.8995999926904781,0.8892317442089879,0.8471628045715363,0.8423732346451702,0.7991772027350368,0.7953128723703982,0.5316474541299661,0.1978874960740417,0.2254116683454787,0.634583382462975,0.914588628408501,0.8494863344587069,0.6168229472470224,0.599513709301065,0.7092408188928443,0.8072890069292367,0.8457501206002642,0.7568218885260116,0.7516571701675667,0.4277543291004748,0.0342221311120953,0.1438734065462044,0.564748546672815,0.7919812750550821,0.6833723944449621,0.6479960316577185,0.7777211949264937,0.7907003387739902,0.8173317988133129,0.814378590176059,0.7517665283704409,0.7266800477604016,0.3412129307067526,0.0600596256277419,0.3440274541385384,0.7360346743669912,0.8863529243459214,0.7534633034052407,0.7560838027351056,0.8499841127959393,0.8412306373920153,0.8438339620153836,0.8183269952591712,0.7872607815859172,0.4915683795133141,0.1463642736260628,0.3488081854681617,0.7441924152946209,0.8634565356280381,0.7161337888605726,0.6976065620691232,0.7053713708302058,0.7002235052632737,0.7534587770797498,0.7162747444354671,0.6900411584003185,0.3257914862053823,0.0,0.2335669699154612,0.6569201627156136,0.88023158507998,0.7822587453148251,0.7298439723262493,0.844019359814085,0.8495205606327969,0.8286989414504189,0.7612707366557325,0.7372221813526081,0.4527296948236945,0.0471420300446854,0.1230772916175562,0.5365858495789553,0.7788537428719005,0.7171915961043409,0.7599999626684311,0.8887213444688213,0.8292906275207086,0.823227704476095,0.7970520479437271,0.7597712570295672,0.6641327335273157,0.2486531599630321,0.0568250615000174,0.4032880498275124,0.7458394247927072,0.7447156394018046,0.6160513891756585,0.7304957471008371,0.8088660404124421,0.8405480760798154,0.8331665639160359,0.7980692775964393,0.6656189419394982,0.2376721139366147,0.0834812821382209,0.45075121114887,0.7936328062072302,0.7837182802902569,0.6333361268585256,0.733229315102303,0.7846629433382855,0.7951976534771785,0.8035818695160029,0.7535349846688288,0.7459019202079353,0.4148360645210192,0.0599668747337143,0.2410222555253851,0.6484973397528071,0.8332479005944609,0.712217751828558,0.6487179201663544,0.7780111002002223,0.8163049715939357,0.8480290267295638,0.8433570946382074,0.8496855786893267,0.6775998967645767,0.2781128461785589,0.2137763561541852,0.6004778242466184,0.8852513064955008,0.8207780473106638,0.675788638945936,0.7548410541534001,0.7792966842086588,0.8081779323285572,0.776613368154238,0.7368362847678449,0.5711929935859827,0.1400113643159362,0.0138536626270417,0.390976357772854,0.7325788708483512,0.775449112610092,0.8240290402735126,0.8046062095114999,0.5103043833967447,0.4824903964765326,0.8159825156177354,0.8150875227570185,0.8522283751393596,0.8575566445649689,0.8343865508345423,0.7981769934807958,0.759385267445309,0.9325827781140936,0.9401102353793096,0.6367138723208663,0.4890090065157626,0.8325026188518669,No
7,0.9883613907568924,0.8522465600156113,0.7346948986438311,0.7231507252161715,0.7000887164826781,0.7131829955139017,0.5652217817091123,0.3708561695722241,0.6192897867632898,0.927556847744612,0.8977656221975221,0.7353239617528433,0.6346992129208116,0.6644438708629621,0.6390680158004405,0.6589333818912055,0.4969901327951489,0.3575337121377617,0.6050675222158861,0.8376223878169919,0.8835557840014396,0.6810588451768216,0.5374063965227678,0.5766860298595993,0.714182788037792,0.7064177883093996,0.5937641699336598,0.3487629278517778,0.494062786474545,0.7527944404602267,0.7705195717233067,0.663976634563848,0.5093661846516784,0.5442131706462212,0.5744304860689966,0.5636728070660486,0.3297651207007015,0.4501436195872546,0.6885740633848987,0.8127780924918873,0.6986327361191802,0.6400410512893493,0.637987279939654,0.6353230022679823,0.6454640372368963,0.5856539887948569,0.5110355699035796,0.4979052640780224,0.4650427609019272,0.4652949464473859,0.4281896027879353,0.0743729858253599,0.4631352533182631,0.4794878211010336,0.2785587904367035,0.179973427149545,0.422120778682141,0.4355360103086938,0.3995217646934441,0.3707130467777531,0.4362308713095522,0.0778323058411372,0.4047543827492421,0.4942865259451365,0.2701519689064464,0.2073325374192536,0.4912599357994893,0.558819550927248,0.5643938638667803,0.3882562385328003,0.3861863009160609,0.3228129806140658,0.053417156750303,0.5497400430840664,0.5644503465721793,0.326650217067947,0.1695909356442722,0.4631156032379144,0.5264184819164384,0.5190278671053741,0.5000890104513505,0.4998107664678515,0.4192841539441878,0.0354954328206953,0.5102117506984523,0.6454097714410643,0.4061037871084205,0.1860201893058755,0.4467917382455755,0.56620248148297,0.5586411835536089,0.5772542638044666,0.5692771729932748,0.6317419474910229,0.2378775429784156,0.5664748303925999,0.7858605927093563,0.6475910925919854,0.3352258730565158,0.3161124104756365,0.404954412157672,0.4254227850055483,0.3764400882606558,0.2089449648757919,0.3140355173128628,0.0082705336355681,0.0153169362070122,0.3638802038541073,0.2405409832206042,0.0202363679573216,0.2018876807343663,0.4038617984179109,0.3964639857605267,0.4143768051200838,0.3935784029103923,0.5037535260733361,0.124398009346478,0.2345092443736631,0.5985172310296112,0.4169433715371657,0.1773518195693699,0.349177599096651,0.5236636751020423,0.5105710608549585,0.5303192263853993,0.4653857898043259,0.549077132156961,0.2509442371180133,0.0,0.5507755572168223,0.5521253699972912,0.3070133216650927,0.1593475174985141,0.4376980148206546,0.4746184712507122,0.4742778863692769,0.4885100333460159,0.4423275654065493,0.4993479624736099,0.0649394713840822,0.3594348630314656,0.6673499491712094,0.4899029090845999,0.2219214826520859,0.3313899562342128,0.501587751758152,0.4808112359370491,0.4713717628537259,0.408888296533886,0.470381455977066,0.1068203775489426,0.3877014312656084,0.513837848631169,0.3181820769311234,0.1615022939198218,0.4094227806521053,0.5104575802827207,0.4912117850968953,0.4422786821667093,0.5073972822502557,0.230811030722617,0.3174883835931479,0.5593772437419395,0.3883191405645028,0.2044849720496109,0.4103400369487198,0.5127107277058367,0.4749352024913595,0.4441624230558028,0.420532636899011,0.4104336837664122,0.0306258201054325,0.4155449333433521,0.5376657228266386,0.3337065442192002,0.1660793334026205,0.4316597010145711,0.5136050961034262,0.5144979011485016,0.6172303915508119,0.6207597141758421,0.6527369836737145,0.5135572624920601,0.3214029935143867,0.5442655916692867,0.8222401421017946,0.7398577796084038,0.6778296821643557,0.5516498252450366,0.5920285532384173,0.6134294164150034,0.640151619797686,0.4404000804461376,0.4271181726677011,0.6585108769417132,0.8637552037432763,0.723758390549397,0.6314796579431188,0.6210109510217987,0.6458852617444406,0.6488478175116792,0.4468718192675793,0.3419274014587663,0.5672726592149204,0.8044725772614076,0.7347461144529572,0.7097140631776786,0.5575992800162983,0.6239862725399417,0.6320118665566201,0.6456085935782148,0.4335547964359985,0.422317550501194,0.7011644441107747,0.9675403891038504,0.760394565330984,0.7239229942892567,0.5883072975054415,0.6490418795481818,0.6106218459820387,0.6316277154426682,0.5069426706846998,0.3270747525750086,0.5661677628187367,0.8649011706904974,0.801708250735008,0.7084504392696842,0.6421688782085204,0.6556546523226676,0.6564189113982102,0.6616903353211705,0.5989324793129804,0.339312097310064,0.4784381271252873,0.7291780605751241,0.83793838772849,0.6663611967973329,0.6211836202843419,0.5562240290627813,0.5393892350853844,0.5374228383054853,0.4711709606719183,0.1879994914475147,0.3029526974314094,0.5328118736450587,0.6470138049371417,0.5010610684166932,0.4093034519310801,0.4671132301815466,0.5726729747850201,0.5540259384081385,0.5069636784473581,0.5068579271735598,0.7884757816852264,0.9999999999999996,No
8,0.9999999999999998,0.990478262197836,0.9951973625413422,0.8901374270425662,0.7549399186243739,0.8699654139654303,0.8067020461008274,0.6079838952171228,0.8416230801964983,0.8531537929843804,0.8714387429249626,0.8405973775306024,0.6834280883469199,0.762770218103286,0.8101221159812233,0.5337738933592597,0.6489152155294067,0.8635637280728645,0.8759352023325289,0.9293353165812104,0.8448673943928406,0.7668463448725424,0.8942482495648345,0.7956787472939466,0.4938055474522158,0.7859693851807832,0.9051468528307652,0.9326554122404124,0.9392291660609128,0.8074663161671867,0.8082662292535965,0.915885036163964,0.7035597160009062,0.5471680792727402,0.8700636800834343,0.8805797106347211,0.9153459672849212,0.8771041722725152,0.7403863340002752,0.8640147490769479,0.9216106413510332,0.654218896291251,0.7827338224614542,0.9298965511165432,0.92712178736221,0.9536820099537076,0.8396619436383579,0.836715511768191,0.9372636466101116,0.7238101948963,0.7460501015018697,0.937866818455819,0.9116455527733656,0.9190690022762632,0.8011258287424023,0.7322743511773775,0.8430969686777277,0.7350042199349869,0.7320689858635798,0.8361814154248626,0.8222505418469657,0.8581240266145291,0.8915866679556503,0.7821622947930156,0.8896178391737639,0.8609411074975897,0.5680653837872829,0.7879918750308021,0.8979994638956221,0.9007962032141272,0.9193934613849876,0.7915259725660528,0.8132785305360495,0.933059474172216,0.7777845257934886,0.5989662357490169,0.9019961687652008,0.9174640370345204,0.9549600892251962,0.9341152286167091,0.8019048538675604,0.8957857419408854,0.8993416829485488,0.5687862513254702,0.6854070611016294,0.9242106644493784,0.8724713440552307,0.8346554377634441,0.7987151231210701,0.6804707126713005,0.185991871388637,0.1735489974391635,0.6562882028618227,0.8504754750996988,0.7211706985315482,0.7848595842954629,0.8910230926473568,0.8475681164522462,0.8398331954918066,0.6040321234211252,0.1048345425176646,0.2061627636099547,0.6841317836715308,0.8438049459681796,0.7044611388659312,0.7263299843490769,0.8416613213823527,0.8156198399916648,0.7899739837811108,0.4326837828821135,0.0490397120334011,0.3902424635761583,0.7957385444643614,0.7682599949053517,0.7093872273861674,0.8204367758958242,0.7713865780690796,0.7335698416738239,0.7144457734274654,0.2987848204484218,0.0120827783489185,0.4343981059649302,0.7596398353724101,0.684587716030751,0.6604877452007798,0.828163425974682,0.838753689183444,0.8201596447761748,0.6870756123153547,0.1952601222439449,0.2095396818869479,0.7088803685852587,0.8527370920192159,0.7074339059720061,0.7909864387747578,0.8827061843023489,0.8340161512637965,0.8379648684595382,0.5434020978797933,0.0870524906861012,0.2577141139585037,0.7497752351424707,0.8243080586168825,0.6612014372269421,0.7561143606161329,0.8458548195466531,0.8023243308314194,0.7784501448963039,0.4011458094495534,0.0267226571166279,0.3767913800869638,0.7902589464767964,0.7872585747022371,0.6739094731126094,0.8285941150977127,0.8689808001663846,0.8183942817820709,0.7543859884463007,0.3044136029524666,0.0388008153653391,0.4773203214389185,0.8122775238240341,0.7269716590162536,0.6823149734600411,0.8387559344827038,0.8212450117585812,0.7687595876608448,0.5863228856951859,0.0636908746000528,0.0,0.4921701258501734,0.7459935018228363,0.6451535478871293,0.6407906453275045,0.7928784074202218,0.7927854496177009,0.76951587153354,0.5657607337855344,0.0626256782299219,0.1326562387989678,0.6455350400443318,0.7931219898543242,0.6693456967298281,0.7929580813993351,0.9178380492493192,0.9095739376717258,0.8879341076287111,0.6540747028460963,0.1554464952346412,0.2619389094414885,0.7468141712741974,0.8772631186957744,0.7377061478307205,0.829015788957985,0.920344069991599,0.8730506419970732,0.8353837090899032,0.6909131564640039,0.1805252216273565,0.1422911256642802,0.6482591970601497,0.8411735742909305,0.6985565043236772,0.7476217993387595,0.8683307234731032,0.844618594567139,0.8171001382096639,0.6009235560401989,0.1124245894174424,0.1568462970885122,0.663785462258031,0.8018054855041712,0.661596542582376,0.7455038907560658,0.8599712062186702,0.8322778234623189,0.8024629486686561,0.6322855771827742,0.1210218771633926,0.1172773385842353,0.6214709849595665,0.8025563220208978,0.6756988191276252,0.6666958808515082,0.7202100300140695,0.8649631728462353,0.8566999646460018,0.5493721367046172,0.7527748383203272,0.9036525902081374,0.902137766040646,0.932626181470556,0.8789823470001974,0.7380851692396286,0.8517499848147405,0.8735083318865604,0.5787556756638039,0.7531855034773896,0.906223666228487,0.9233166513649184,0.9415794656097912,0.8690344421694249,0.7659461688009157,0.9055646905857706,0.8506055664702974,0.7117952034167845,0.9345350510064075,0.9229564787727258,0.9772333827254138,0.9635966138641076,0.8264325721838153,0.9333954285113844,0.9514385982770336,0.6645823889585187,0.8216265276922521,No
9,0.9999999999999998,0.9596726885797736,0.9603510479996268,0.944743063057919,0.927351694464271,0.8790931899703824,0.6614709260447837,0.6850112205806627,0.8710232809358656,0.7539380285852639,0.4171941703664183,0.6312021096330762,0.9503376355216216,0.9533401989010108,0.9588716031313036,0.9488004635307286,0.9297411700934476,0.9146193269992742,0.7278270303801604,0.6306687264857642,0.8266302883997023,0.7942751823405725,0.5065220796357066,0.7318253496407994,0.9846234344535094,0.9509771899535632,0.9436647057916658,0.9289046480240002,0.903686382136714,0.7668459626996909,0.6278061204810179,0.8193961453874918,0.8633927654636333,0.5510766975362287,0.6052051019790452,0.9445928416968437,0.9458515445032056,0.9564577317052608,0.9517014043359466,0.9281059179888798,0.914787869068262,0.7661429882809763,0.6093975233464428,0.8108216018608985,0.838414782889745,0.5000998928400164,0.5120010611111134,0.9011291810296294,0.9518791734763276,0.948397096646126,0.939990079292121,0.9285058689295972,0.9222429946543172,0.8120762640018528,0.6064220379992438,0.7765302792512478,0.8403373554978042,0.5286813736301841,0.4770051505002788,0.877773141203597,0.9698253579781472,0.9400826294928027,0.9393412574224028,0.917972776033172,0.8812162652261437,0.6666890549568845,0.6767416036020297,0.8576658708830729,0.7344921670047684,0.5426489041626497,0.8697318320246976,0.9707086561390624,0.9345966405939412,0.9328697393493586,0.922230463302445,0.919911827213752,0.8060388313079578,0.6066606001654342,0.7756900007820307,0.8662603762689993,0.5922620790265098,0.4626535292649536,0.8432249502181894,0.9494068331996012,0.9452911040736434,0.9382558061595396,0.918409461445766,0.9052278344161652,0.8223346284161834,0.6117063763892212,0.7576326973821363,0.8837161717882311,0.6629820830701625,0.5035197388504231,0.8651913837782133,0.9674627063598208,0.9501835334885412,0.9456220560880092,0.9165118664257494,0.905457665737486,0.7123858234646707,0.7006200745382036,0.8945634274492413,0.7976798641939069,0.3620944117475679,0.0544886976202971,0.3560643721923511,0.7448673297356383,0.7929286461527416,0.5741105193126643,0.6307830913530019,0.832235644676816,0.8449421357306124,0.8653806859901743,0.8668873648941109,0.8824582706135169,0.6679708584845143,0.193150235534919,0.0765813083194173,0.5195153800307837,0.7924746283960709,0.6554087137417157,0.5049997714504391,0.7260392417622852,0.8303597745909517,0.8418522338159222,0.8618058159051809,0.8526985301555976,0.8714912395529584,0.624813006871699,0.1423590233782443,0.1012543602418361,0.557805184679655,0.7852099203846599,0.6321785093446961,0.5275143899624302,0.7650213777073398,0.8424159036100469,0.8524511694434131,0.8531992153659134,0.851481565110068,0.8485380021471809,0.4586891069076679,0.0308609545209508,0.2323581131072403,0.6705225921580469,0.7644171624782412,0.5499351568541166,0.5815910743401351,0.8075705983065131,0.8452947247666691,0.8609079202663532,0.8605318285488865,0.8810521852146185,0.684761202974342,0.1881317282687955,0.0,0.4291386347120898,0.7664456528604069,0.6623481858214635,0.5019437357628249,0.7287715677072464,0.8387831633140197,0.84225985632183,0.858345936274213,0.8549445738665662,0.8760437398436582,0.6763452363283513,0.1911662241082397,0.1210195706367627,0.5760423109065693,0.8009282214342692,0.6235741750160211,0.5320419832691223,0.7720260274729742,0.8407944139725443,0.8587572662720702,0.8759079349948602,0.8625458497295508,0.8742844081019896,0.5899514439185463,0.1072741161776318,0.0989872197420924,0.5699128558895421,0.7998602747161627,0.6462874026552432,0.5405216841564624,0.7690410225169486,0.8422968413595993,0.8553694801937886,0.8653242098476579,0.8785499480919985,0.8471635655490302,0.4245449401072987,0.0082302005189283,0.2361357494473737,0.6795342682498957,0.7704173368277172,0.5836454095868067,0.5911595996639083,0.8192967662010859,0.846516587992306,0.8617845426107291,0.882561059460581,0.8655996907834795,0.8803862021348634,0.5959229840841462,0.1122536605340054,0.1207938966070474,0.5903713213657815,0.8007976652413726,0.6390472503551445,0.5500921274594581,0.7784011736430438,0.847721654660534,0.8622950233402216,0.8783960839760774,0.8840907381885195,0.9149119137258036,0.7693767642514351,0.2862534890737649,0.0563051345922385,0.4562889583375575,0.8299140154683979,0.7665669468829457,0.5198390030646889,0.6301153622811724,0.7980388256498194,0.8163330422587085,0.8281614607015173,0.8316443064467653,0.8567667683288829,0.7181676541445514,0.2456461667842941,0.0031495523273625,0.3971535718033852,0.7552669877463039,0.7314881347688738,0.7204444011984832,0.8568936934786613,0.6804037213697371,0.3823915782513056,0.6888095005902362,0.9455637810779852,0.9158657947701736,0.909625352131744,0.9058349991457326,0.8941418776186467,0.815864464970921,0.6142167562814007,0.7776916842881996,0.9337328817704652,0.7087210896986516,0.5453212651832124,0.8971998879219985,No
10,1.0000000000000002,0.8687340506560932,0.8760169003927862,0.9059019231734722,0.8860401708482677,0.7847871617945674,0.8062711376186555,0.661012142533459,0.3469650062202061,0.5851349907371615,0.8192714607242426,0.751987979412952,0.8217304528414855,0.8530836708662368,0.8536121532247629,0.7779114479094018,0.8430753563204567,0.7880364519545109,0.4678391941796502,0.620767657839081,0.8742261060707068,0.8094601383326008,0.8356787920415878,0.8379134899274903,0.7903643958144648,0.7463064515459388,0.820963436051086,0.6091991268554671,0.383775050145168,0.7145371496748154,0.8613270827643025,0.7809279263339868,0.8460316288020187,0.8542366017713034,0.8505116927448759,0.8790306780322414,0.92656090292246,0.6779135369540257,0.4209237573701994,0.7402643738792991,0.9455176376141206,0.8403137509583984,0.8676613371468582,0.8758316974613305,0.8278145918961577,0.7544343042157282,0.8416316406948854,0.7574322250621239,0.5724198810235392,0.8600451927489361,0.8712523625881683,0.8001991629368581,0.8678665809798825,0.8712420862378976,0.8049626901566487,0.7756033891237488,0.895095792634321,0.7748516582231753,0.4388448446324757,0.6495093320013943,0.9456575937558476,0.8590474937469337,0.8896083090133844,0.8392455592779415,0.7330639127417136,0.6740126188356432,0.7260404431516927,0.7719431063240163,0.484663639093055,0.3240721350776998,0.712390763360432,0.8738823537167051,0.8088666910935054,0.9414501497792852,0.9709302288132242,0.8813339628021193,0.7965401605116089,0.8643091085194377,0.6951872868834676,0.3412522754565397,0.5421794873393877,0.8554687054731895,0.7787937367883486,0.8169156694581694,0.8820303809120025,0.8677695621616348,0.813506825720564,0.8619440445241893,0.8934416662150417,0.6068536955659483,0.5809396505939517,0.9289237544648196,0.9428009058337354,0.6402254369525726,0.224151937104891,0.2118063945420074,0.642218176631008,0.8353728959528037,0.7412491435604174,0.773458079526472,0.8147193021580226,0.7726009452325211,0.6752143374421606,0.721882201714785,0.4085747768575707,0.0599821657654104,0.3298961274253389,0.7261357487950557,0.7690459085522303,0.7189524356746542,0.8398110981779301,0.8960028378980163,0.7987221154896507,0.7135897162843217,0.7354460926490398,0.3475161270899194,0.0,0.2808075047754705,0.667455053888433,0.6778168915649212,0.59814241108024,0.6659637238286253,0.7720740809192141,0.8187700124518089,0.7619939389417854,0.8078359885921442,0.4405065753449801,0.1776372869182525,0.5280529655627977,0.8169229005425993,0.7273968028140014,0.727159586076126,0.8091783732939513,0.8075456011452833,0.7171599582919923,0.7664049914876909,0.6289902538581147,0.2193139476233641,0.3325564307137898,0.7257578025637981,0.755791026325183,0.6834900344901926,0.7706864700462484,0.8044105659912268,0.7780690471708447,0.7388168727687769,0.8370515472641806,0.5578011767268369,0.1447968320246042,0.3086421286226515,0.7361907542429946,0.8530214401691396,0.7876543849252384,0.8021004293982237,0.7859554785523757,0.7556133259258104,0.7031335663463809,0.7070953699128861,0.3074065438557791,0.0415396240995744,0.3940632145171774,0.7332463517237471,0.6988761761246665,0.6921238316174418,0.7798917920327761,0.7858577453210345,0.7305134299947944,0.7645528881271544,0.5988648083990042,0.175415809250353,0.2559586391221737,0.6828738891639252,0.7881529236520446,0.7023952957837751,0.7847306588232448,0.7913678818126251,0.7582899187031302,0.670590904548068,0.6961412575395445,0.4029810223934975,0.042327651939666,0.2913039422371795,0.6745092115208313,0.7123288966450623,0.7397642442032806,0.8333216741829548,0.8250665037388234,0.7791832903040083,0.8075361090917055,0.8170947627781187,0.4068693052230048,0.1640134760412375,0.5302687157713757,0.8599254555786298,0.8166478199079654,0.7638384393820343,0.806184713341578,0.7958681888909653,0.7033605230159046,0.7618711639389912,0.6074559263811852,0.1628869734858857,0.1840108368062529,0.6166993789315784,0.7578576024207078,0.6572896034579323,0.7286039620400893,0.803851020163296,0.782098913192957,0.7081449788955536,0.741683332983005,0.423677252138688,0.1149420130508784,0.4143163320896899,0.7778015474972013,0.7767976845907552,0.7136150138415587,0.8073509039183537,0.8040761011507118,0.7317135310705953,0.734350045720334,0.6754047033618271,0.2607606925226673,0.2713866883032374,0.7256028761821238,0.8938052756030468,0.7993603344878044,0.8482948097372038,0.8652784034611642,0.8061581966500622,0.8200489670943958,0.8876157813390002,0.6294270253750198,0.4584814182695427,0.7966273106945676,0.8312720779032892,0.802622798190386,0.8646257318356716,0.8353553661807027,0.7399272670306607,0.7673668229209059,0.8148263038273258,0.5197692411772186,0.4089411268373202,0.7952367491396044,0.867262531192192,0.7935250962245239,0.8581997717752039,0.8663554217379617,0.8346831118067237,0.8860328918290434,0.9452357527050996,0.6793520962455697,0.4953084614492924,0.857338126669245,No
11,0.8962752099270395,0.6174067103954544,0.94336075281758,0.8836601844344161,0.8732708920012282,0.8770693365713456,0.8261835515995899,0.6465221949667681,0.7213844419314941,0.9026003205070664,0.7861006370582881,0.6067620601916146,0.9130734693400012,0.8732822882877671,0.9234690121877128,0.9185561780570404,0.8177838892033624,0.7753136316361511,0.7103954568187825,0.7297585429960973,0.2659451940776498,0.295614047393038,0.712333799290298,0.6095940235103701,0.4545290742233865,0.6385008528720433,0.729172659600775,0.722802300111578,0.7135311317094692,0.7217594512293912,0.1502853383304501,0.1348871995990435,0.6916962206998254,0.6722985281321949,0.4949284314261115,0.6574593170913503,0.7555772737270114,0.7395775847611614,0.7049994406640558,0.6845333418966266,0.1204118023042584,0.1555185594025645,0.6908752497406754,0.6470597635311184,0.4591186420422528,0.6385324994397292,0.7661883096276747,0.7732268316692514,0.7534107597461626,0.7023265377282897,0.1668164822501019,0.2981851601612453,0.7244850986945255,0.6432941280828599,0.4854372659769628,0.6510991307825997,0.7539536842350807,0.7243713221301831,0.6898040260203637,0.6709641002337943,0.1288226928121978,0.272892490962795,0.699754959102775,0.6063080310769089,0.5075736953548065,0.7183143398875704,0.7544708512847822,0.7175991399214681,0.7525322995431187,0.5227380741196122,0.0,0.3786108543320541,0.7536204227806502,0.6128614113020441,0.4899057468235233,0.7056073090758646,0.7403771194993296,0.7115350309569739,0.6762422829184995,0.6193734619762097,0.0108512419644806,0.0851594999917093,0.6913250468560652,0.6785296474830496,0.5207121232030687,0.6395232696502657,0.8021156491898522,0.7866660387731823,0.7389832046981106,0.7240339487385525,0.1661425064027062,0.0607036501340858,0.6636584014363369,0.7059968090214053,0.5164066524672362,0.6000300905847089,0.7698917046320255,0.7503086043121403,0.6921184601110957,0.7098888736631048,0.2875862235529682,0.2675257241767865,0.6638164071650205,0.5273230308567669,0.4701687952437652,0.6749932029147856,0.7021085295531879,0.6917082185870207,0.7017629135108416,0.4950634614881131,0.079029629871111,0.5292534277955023,0.6838144234211447,0.5042003290646009,0.5984301592375778,0.7723079755997846,0.7770236437364404,0.7405477489554841,0.7941608087675696,0.4444376307496558,0.0248937438435348,0.546398663060716,0.76991376342015,0.5768689873286026,0.5190095612097232,0.75378376421641,0.7740621420320233,0.7646198331568859,0.7750296544617377,0.588980076125603,0.0844689476346456,0.4827697905519108,0.7728474785108452,0.6002471781247531,0.4870168078994341,0.6913128865707132,0.7412699147178947,0.7279752684111718,0.7007575341297971,0.656770144498454,0.123161555869756,0.2736317981590765,0.6895475459806937,0.59734756155658,0.4611501536179614,0.6798013168464632,0.8544383985247843,0.7698554498992696,0.6330453967260747,0.8097654582447644,0.9536384399871336,0.599260360684772,0.7225269678814064,0.8940530274176464,0.8887646125899913,0.8912509153195911,0.9144354201655376,0.8445535484630438,0.6376488235439619,0.8017366726617396,1.0,0.7356035834291181,0.792887421792273,0.9365866101611218,0.9068440344770456,0.9136090921447,0.9198032217905364,0.6958348468828177,0.6751738272308527,0.9242650687941248,0.9857618703396094,0.7104725807088048,0.9453304619023646,0.9180941425481066,0.928114518698683,0.9124767645628564,0.8019464622706667,0.6249359707533815,0.78230684176313,0.8384263088788013,0.5656955234118284,0.8276144537624344,0.8381823012367193,0.8395312477986625,0.8286964292598324,0.7247643692136037,0.5999885686216655,0.7867982145070398,0.8923902744024894,0.594736944645371,0.8241963678358473,0.8701842052606876,0.8927303834333098,0.9428568452054544,0.8351805841113005,0.627808034639326,0.8073352131175415,0.9918669587484764,0.6646558790986554,0.6678532369925039,0.9186474302990836,0.8924803233385603,0.927981071443308,0.9396481944602688,0.7456832158888926,0.704260239945385,0.8933562085240032,0.970849776688942,0.5711817971635402,0.813786021300043,0.8329955430699321,0.8579140999057095,0.8954107961229831,0.8530654155138788,0.6449026517131413,0.7739526181584617,0.9422020045631792,0.6860826301704939,0.7530701146249545,0.9336493314835348,0.8616303205290108,0.8847180053099697,0.8974953621634483,0.7218267305179156,0.6632775589345004,0.8379287397358195,0.8325500885150552,0.5740839121623056,0.865356983183827,0.8428427954562885,0.8714835912707994,0.8983753757798887,0.716098989226893,0.6747507379952093,0.876476512906212,0.9092751741214192,0.6227818087331869,0.9121574878871122,0.9092960912860156,0.9096651706132728,0.9128685425399188,0.864280981347862,0.6286112759420783,0.6956342264796809,0.9151947492627984,0.901680560625408,0.604162056627112,0.9037531200697596,0.8671325997499841,0.8721178030576042,0.8805481739168011,0.8294981942187687,0.6355799426923436,0.7805093901572842,0.9839704380903864,No
12,0.9924268768589768,0.7503695271422265,0.4533826439102634,0.1806046110963861,0.2049705776819804,0.4663361043996773,0.5280150791089114,0.5681463208232155,0.6574634432922762,0.6945018865900002,0.6852648055404672,0.5787283778937261,0.6386009737592352,0.6771950158727228,0.534479978572075,0.3642623061891549,0.5107220500931405,0.5564564584321635,0.7330103521410866,0.8978715050955671,0.8899622842032181,0.8292902750434129,0.7847326730699439,0.7223974596987451,0.8144883550050835,0.8866104642940865,0.7697246133635224,0.6483356056962511,0.8578825555284221,0.8943101129925469,0.837860317120476,0.8389037062302777,0.8183202395094445,0.7668613076684524,0.711090727176331,0.7147213869598174,0.8270321065074774,0.8092881771459041,0.6116681936051921,0.6390005085005056,0.8519252090332906,0.8227125595837538,0.8306279479566311,0.829076756392023,0.7846736216848841,0.7357516515255519,0.6697215192768523,0.716162283712605,0.859980215134115,0.8883172817415267,0.7186375906952037,0.7780329561495295,0.9557814647502404,0.8955348400472457,0.88690362752316,0.8850928009801974,0.8595798453862457,0.7747212213301736,0.6700866886839191,0.7519018701130028,0.7493016149705872,0.5532147536437154,0.5146585486407259,0.7262857588854651,0.6957385283612839,0.7023877660753809,0.7458696056356492,0.7599017324951759,0.7152765958171453,0.8140921457229685,0.855553300266689,0.7389075267667241,0.6444958420544499,0.8602045380698106,0.880690652880984,0.8501628612905233,0.8656312120470829,0.8078042891037508,0.7156393043022334,0.6440582375358285,0.7683680726315197,0.8489256041602388,0.7461763338137425,0.5992610708177982,0.8035434462688741,0.8532820693251973,0.8105322234240581,0.8415684451760693,0.8619339975623846,0.8565682217150229,0.752561072668292,0.800497558843423,0.8397018315072974,0.7387653147494803,0.5019758293964834,0.5833808109958568,0.7780135477673095,0.7223129258763533,0.7448186278473407,0.7834063134580326,0.7883440358550925,0.7323205567672327,0.8106417954213009,0.8699471091589873,0.7438937004566514,0.6343135306734672,0.8126216879687179,0.770718323800175,0.7351164172976358,0.7409979714889422,0.7399663319378474,0.6550657810972521,0.6687239530530437,0.7844163793913307,0.7921619142254598,0.6533429025060004,0.8085781405406801,0.9328366727013552,0.8857010054537048,0.8787545354227727,0.8084796960750286,0.7862867386403892,0.7742460330913697,0.5211083471762249,0.4202910867711565,0.6440989983509932,0.6918266205807374,0.5936452983303194,0.5247703754734035,0.6241714515679674,0.6375329479150577,0.633939164665475,0.6252290041516905,0.6961705976093638,0.5409392507343328,0.3059580676457044,0.4639037355872223,0.7071097436804615,0.7475844556307069,0.6384561303085187,0.6534319919017894,0.6870587904538891,0.6723995816499985,0.6220959944963328,0.6450292828995242,0.6107640795147108,0.337426214499408,0.336640412212944,0.6116582435322134,0.7234878836954092,0.6613847253669484,0.6462344939322898,0.7579716150399088,0.7563963928388074,0.7397612076513232,0.716481367837868,0.7383004858216734,0.7140307615691718,0.4339746570851953,0.3312925026536762,0.5937670441071413,0.7276050845949201,0.65193731568334,0.5285595941918803,0.6045086672634236,0.7095866874975824,0.7606748106476225,0.7450052995310589,0.7703566268629055,0.6004664378231389,0.3612234276148306,0.5144863954497997,0.7198808212600741,0.7166891434273491,0.6098522196993675,0.6437775640685576,0.654344026910202,0.6178287458995358,0.5763670694164232,0.6176272365091483,0.4241988228021077,0.2006234907702911,0.3810265916356941,0.6174948961448928,0.6557866034997707,0.5662995031959562,0.623348447416369,0.7402402031392054,0.775538069247487,0.7845416978779524,0.7709308766116411,0.8125839805572698,0.6070950154046076,0.3539226425799294,0.4887926535289028,0.7410654383963661,0.7626461582706155,0.635189946864403,0.5505344190732512,0.620782508212338,0.6715502550090616,0.7235393569752903,0.7255250346292844,0.7306827916098472,0.6636112814578753,0.3948409980912249,0.4359066667375938,0.6802484149228186,0.725011452251794,0.620073669992263,0.5879361770717201,0.6594164299504343,0.7145431508252357,0.7426649105451374,0.7387088697184022,0.7762830299329392,0.696434555149747,0.4137485286304762,0.4269759346257734,0.6905371354423023,0.7762160963582271,0.6801484769111908,0.610205300194043,0.6829811640564055,0.7311130504899527,0.7956479607725039,0.761952940114549,0.5437767599826285,0.427553454885711,0.2610092249061122,0.0413764398477511,0.2198302147027619,0.4822676520426302,0.5739709772739784,0.4925575308095867,0.4943826796119118,0.5996250543224687,0.5878515132924808,0.5485446560971278,0.4642751022645724,0.4204975262954041,0.2806944865826101,0.0,0.0083217520333761,0.2912992895678679,0.5614233768647044,0.8249104436037068,0.8547054097015937,0.7343335979519497,0.7613056585583525,0.8130839566629616,0.8797936352077057,0.8645229860469875,0.8671165107771782,1.0,No
13,0.9296205712006124,0.7022660032543082,0.8254007256141302,0.7903719642186275,0.8212921584219322,0.7956748164951142,0.7875560234762267,0.7776077476496632,0.5782944038322961,0.6412247430666889,0.8199149109694135,1.0,0.6962686782234644,0.7575564014097105,0.8102249555064964,0.8337103710901035,0.8252073233237773,0.7532640850229213,0.7665663871936745,0.6990910496714475,0.5217702348168913,0.6726641140560594,0.8605030098529345,0.8095094082180241,0.5756308121399649,0.7970304286765613,0.7734373275204942,0.7925884711930768,0.8009320224885825,0.8080945648346676,0.8102007139403034,0.6468381995656212,0.7168496665107926,0.8471283229461672,0.9250160607089812,0.6355930261076268,0.8086775270460222,0.8248251655758052,0.8140767358556649,0.7940128721531279,0.7762528890531866,0.7794106543845634,0.5946808066951332,0.5912498041898786,0.790811347963893,0.8855369200903702,0.502842258040987,0.6174643766994854,0.7874223611223341,0.7781699157902695,0.7836955654152398,0.7832038095179237,0.8678261251811654,0.822858684616806,0.5097655792704789,0.4732021926267058,0.6678869532644462,0.8141722323002729,0.5573800845017871,0.700228665952265,0.8614622702056409,0.8720613103600137,0.8969574197623627,0.8818522191068063,0.8411871744346837,0.8447363244186112,0.6675236667700819,0.632311702317915,0.8099817770837516,0.9854888385171964,0.7741880066937319,0.8062452254087447,0.8633321203507838,0.819223031248431,0.8228561179789846,0.8033607494266954,0.7845922085574291,0.7354026505678903,0.5269705880071966,0.6067835918876114,0.8428359153199221,0.9299313146200938,0.6187119812454327,0.8097637612005921,0.8202120530295778,0.8095393484285136,0.8213431785422616,0.7988242274396908,0.7982938422189201,0.747009132276963,0.5311240130487009,0.6204223406087293,0.8162555738338315,0.8787503923537292,0.551601309429862,0.7394321407109605,0.7809713995160821,0.7746967041766455,0.8568621341956337,0.853005224734511,0.81461287789157,0.8022482970475195,0.6360591542830565,0.4687592009942185,0.1906577886014226,0.2201816223775985,0.2235617541598435,0.5650673267332236,0.6904912966096113,0.7128353546208568,0.7556168283213882,0.7211978277163307,0.6262526346442363,0.6730088449597793,0.4504199207481658,0.0,0.2761559720094402,0.7310309905326968,0.6537739335144144,0.4791565380536653,0.3986856700727452,0.6327854843768344,0.6901952522965731,0.7018306302736725,0.7179161399310319,0.7133424947970268,0.6899282078924092,0.7130887671267163,0.397968769663656,0.0834877591846954,0.5208923480316789,0.8089564621583647,0.6212022109090225,0.4278641674891617,0.4327342429360832,0.6474494034540128,0.6781717984914715,0.7030480770307554,0.7083365402772981,0.6993695151112207,0.7502300998502736,0.5358535321292521,0.1024492848240723,0.30594418336451,0.7762465699813474,0.7187731288303945,0.540893221362003,0.4978350818378412,0.7158403656497909,0.7329277522677944,0.7557124512567217,0.7881692645475473,0.757688262718827,0.7392425497170918,0.5093600616103071,0.0024863105490253,0.1062171700814351,0.6010737616895123,0.5831784615367521,0.4141888348588458,0.3085203043171853,0.6051973637314876,0.763996746723639,0.6863230212527012,0.6595156825611315,0.6703276745717948,0.624012596243948,0.671768602894903,0.3487262389571559,0.0256544579717648,0.4096583282854942,0.7185920833137884,0.5867496548830751,0.3878384101550107,0.4614837703069905,0.6540317541538778,0.6574933497736408,0.6803047623906364,0.6951633169271889,0.6914117650938789,0.6823823647722422,0.262415236248096,0.1872198641463267,0.6735435826002525,0.7150682595687083,0.6055123935774245,0.4948781371252368,0.6802419915014832,0.7010091058393826,0.6882697034702487,0.6947832262025062,0.6720004912338897,0.6831523220683331,0.2907960327759986,0.0538603287333727,0.5194441330334882,0.747313767382848,0.5948065213749811,0.4216229570528242,0.4544783739626847,0.676638892909045,0.6590067064257328,0.6790329844047838,0.6939735927261546,0.7205163800932266,0.6922850615938794,0.6547294030257254,0.1961356798252684,0.1520521198447895,0.6921851884174162,0.7891124742763509,0.6168764787251169,0.46327843979231,0.5996558462155188,0.6999772067965644,0.6743617692676316,0.6976494134810478,0.7075773230409195,0.6896769352275882,0.6202495746679171,0.2256763178601404,0.4437948530038413,0.811632166536818,0.67892587841818,0.4690771487744114,0.5348552615638691,0.709966275109648,0.7049931732947639,0.7357697257669544,0.7321011977768461,0.7062643432804316,0.7009476447308902,0.275653383891858,0.0981503357180986,0.5961550017887518,0.7368864575528846,0.5477385608453718,0.3909560450137044,0.5878160505704693,0.7415495940016656,0.6436234316418994,0.5411986494210153,0.7185616951260618,0.9192340652879052,0.7561761921171741,0.6645553263125805,0.8442838303818094,0.8195516447495623,0.8331511199628352,0.8127579754317478,0.8181375983201269,0.7652196452638069,0.5779712050777515,0.7042842375637237,0.9351575854141264,No
14,0.9961249826111565,0.5979164233861964,0.273671401805978,0.232361919213091,0.1896667997084016,0.2028445753689025,0.1936622086491661,0.1596526667373388,0.1801652173201915,0.3153899763932064,0.655984388800742,0.8411293192212446,0.5225012464230598,0.2574439924918001,0.2455635121314561,0.2322934707825417,0.2413104137133523,0.2290959434214099,0.1903661174263089,0.2253464133410365,0.3846039521645368,0.7156307990325379,0.6881928524960905,0.3613863180571677,0.2918167021560243,0.1456978986394717,0.1451622650662685,0.1606176920571085,0.1278312731867328,0.0965773547392161,0.194792574906373,0.4027134498954212,0.7861697083505255,1.0,0.6913935556712483,0.3308355714346498,0.2634485449099881,0.2232363604288618,0.2045339881823178,0.1667461136190746,0.1241606692174097,0.1526102472927382,0.2788699472703126,0.592826940737583,0.8325691384361491,0.5608967974121999,0.2787007435928159,0.2364410875979778,0.2204362678531,0.2169387554864146,0.1848583368511773,0.1453260672525496,0.2083652937086109,0.4234906804674838,0.6791806063798442,0.4436305381632239,0.225563652429487,0.1921034954897251,0.1802012941081405,0.19396873359751,0.184127102530303,0.1612435190958392,0.2228057162397352,0.4457708398308844,0.813856262138859,0.8245705990621937,0.4510964860086028,0.2810517108666022,0.237942273153223,0.2357214775086427,0.2274790518106781,0.1828966509668892,0.138435078351508,0.1985943737173501,0.4329088275391486,0.796096886936791,0.7784823645916155,0.4026622535841762,0.2698956634323779,0.244109607249912,0.2397201669473467,0.2290019822237377,0.1843885308030666,0.1670395147392758,0.2039139315569436,0.4275672279690474,0.709418858056261,0.4974157571871158,0.2237898590963514,0.2063354242025452,0.1875398613317156,0.1873753379955318,0.1733205061401885,0.1379314009702301,0.1985376014923032,0.3261123459495403,0.6622139508216471,0.8153824757969272,0.4865645691436135,0.2830101627695742,0.2529894117804638,0.264570399722865,0.2237505351408857,0.1936877945409851,0.1594829629903766,0.2055534794717184,0.4070733641242641,0.7853875253413194,0.9092698585295564,0.5675178201986033,0.2741550532384185,0.206826443079549,0.1577777224021088,0.158755443274285,0.1593011661246945,0.1259527880384929,0.1679784906524255,0.3135811507764106,0.6260419371997061,0.712792217431713,0.3783715412010093,0.2598766746310708,0.2268435845176535,0.2126698796792294,0.1913175024539293,0.1707450855020773,0.1588159111680582,0.2115782324410928,0.1769974505445593,0.1090463549094349,0.1157660789330248,0.1409656513789792,0.1585902612136036,0.1635736575263151,0.1561111318690402,0.0188929506795445,0.2650078190595692,0.2914346638792757,0.1388957060471816,0.0686942757203741,0.0959563398164824,0.1040778139027414,0.1042402332588696,0.1244540352005556,0.1009159565244666,0.1074354527373693,0.4126912545061278,0.3204384798844231,0.1519042620985518,0.1069780764620327,0.1411773422779123,0.1723257066469548,0.2012177910723138,0.1812056397354993,0.1581707148323929,0.2278824978157767,0.3649737140473834,0.1999197021686269,0.1148791659807533,0.0918472420748408,0.1292150719134643,0.1450869524947606,0.1317919544324006,0.1157130055059838,0.0,0.2156751348012138,0.2008535909537587,0.1260427527273204,0.1059827403270667,0.169057952195903,0.1942083710849989,0.1773284408413253,0.1907248203365623,0.0916475793772813,0.1443441541740286,0.4275211324113814,0.2768094238339023,0.1242052632971455,0.086451135999638,0.1482686611213211,0.1805600516698304,0.1733600150372833,0.1760292979370148,0.1530491039322417,0.250054858959416,0.4690369316077079,0.2632481526203096,0.1385753019146363,0.0922046034289785,0.1405648724538364,0.1379720193382572,0.1156845024204913,0.1400292523231021,0.0357460540221379,0.1251431060012378,0.2143445817578753,0.1278781052290916,0.0879218956391245,0.14327307310644,0.1687299668360333,0.1678485857455245,0.174571919682507,0.1096514980485408,0.0519204030907702,0.3333721868819626,0.2572549595463478,0.1163945366118461,0.0661696603907382,0.1044605226410977,0.1419124024609643,0.1652271806437573,0.1804706431219045,0.1391481146083173,0.2465363946592309,0.4571498783908785,0.2489749649616199,0.1148319682034417,0.0293577889801042,0.0763970135365323,0.1054805303581321,0.0867301140514853,0.1046595253971167,0.2073413797670986,0.1185223708625193,0.3156145987297383,0.248818141004361,0.156848574467405,0.1470892757056012,0.1870489306259588,0.1965401578563439,0.1652187421013431,0.1672008924534269,0.0350977631448168,0.2246515538206459,0.3731370561845324,0.193893635496861,0.1093283242323956,0.1161197743977926,0.1506056006984761,0.1499058650621036,0.1298847915022356,0.1669518104282041,0.094517197349675,0.3579637150177741,0.5451983119650272,0.2861663864307826,0.1439128637053586,0.112264626903805,0.168899717390657,0.2112008351605783,0.1719882146705711,0.1805573106290843,0.2873269158675002,0.6133489513572257,0.9969254917360066,No
15,0.9503382411306468,0.60306525205803,0.454925121753849,0.5010470710602069,0.4530757281265476,0.4801076087517133,0.62126517111991,0.5913735495850752,0.6531071733636278,0.6436788349822655,0.6507091395105773,0.6600826720589241,0.6862747093445307,0.6720480349724882,0.6423545839889448,0.5821682999919435,0.6831544470598243,0.6740686961965299,0.7578454934264123,0.7715260082346433,0.7840046742215661,0.7302479795550223,0.5894858098905087,0.6315445536341393,0.6636646386803422,0.5984820238564836,0.6464992163909145,0.7193015357889028,0.740625019104046,0.8125925254613726,0.8272218597671905,0.8515702620374346,0.75647591814805,0.6002389186504904,0.6327578541511065,0.5963587246506292,0.4577506057113183,0.6458360470045021,0.653452094453109,0.6773860494403023,0.7027804484036322,0.692219859213584,0.6683044227444737,0.6560968627786452,0.6633105613559755,0.6258807517377551,0.5581794401635398,0.5468567101648798,0.6214002217390759,0.6111238098692402,0.659827419108729,0.6754952299970878,0.7123482048434573,0.7217747493632216,0.7169895867474896,0.729445689694455,0.6606335875503926,0.5574028769759987,0.7025602785861937,0.7050833848361355,0.7363797396275116,0.7605688254052261,0.7655556484251087,0.7450606074881896,0.6673937659979701,0.688233902123013,0.6619610192093885,0.4878189262567272,0.562047886139565,0.6988763457776175,0.6509275915386565,0.7012692402786986,0.6874096165635861,0.6863969566346722,0.7013235510998648,0.7038136154691843,0.7002774855400915,0.6560172026836226,0.5939961263083666,0.6177201018107739,0.6683894812611717,0.6598243166652855,0.6996525302629943,0.6967701056435671,0.71287032388453,0.681892169311801,0.6629148964691565,0.6584005252478895,0.6169879011494781,0.5888580034444297,0.6808535739950172,0.682841440412508,0.7385019238889252,0.7459043280628643,0.7612679816366321,0.696195071109861,0.6762679838516523,0.6819557103631171,0.5686668499150036,0.574934201302006,0.6928332432624806,0.6545193705326025,0.6300508194187935,0.550405108097372,0.5941019665054816,0.3611969463476581,0.0334110092059969,0.2781801163666109,0.5556577753667216,0.5963998268068327,0.5901449967095593,0.6556096924167396,0.6548649299123817,0.6595033017203038,0.6083186104712661,0.5872725038077591,0.4544964921886105,0.2150220640177251,0.391153710846245,0.5647783848606411,0.5749942995911361,0.5720662984124747,0.6276244720076853,0.6058032759666885,0.6159873570765955,0.5848144333782539,0.5457564928796592,0.5231312300494699,0.258824495841111,0.3900782057967569,0.5889076403569131,0.6192360608149419,0.610430165371743,0.6093002017270637,0.5975092294046624,0.6129292698145594,0.567002852160424,0.5465395414514331,0.4577566919291453,0.0602670109884426,0.1323964443664596,0.4875732200104883,0.6026283054878259,0.5818106166773629,0.6040094218617935,0.6735258237787933,0.6702199684272814,0.6659064634694003,0.5951685592558351,0.6142245924391716,0.3522797143495548,0.223944662637372,0.5217063003971112,0.637965238347896,0.6276592795473439,0.6367218934330272,0.6092554826915051,0.5805146125619891,0.5680566810412615,0.5039883930324689,0.5252853402708251,0.2852800800147648,0.2343285942600133,0.4582217738085083,0.5640279625454547,0.5659863576304569,0.5650225709807,0.5953213861238531,0.6069943443829917,0.6140520143689421,0.5427672961379519,0.562250911035397,0.3013317842976653,0.0,0.2787618948309096,0.5320905120487858,0.5246728489697463,0.5109217377279851,0.6974303361988228,0.7495055364869119,0.7243521762040293,0.7000814831741486,0.608052013811045,0.6172931658917946,0.3592586255186014,0.2159284163347292,0.4774558514936076,0.5630548311077743,0.524406704139277,0.5076213519108301,0.6537802151381418,0.6775411395376301,0.6786001988165116,0.6420909392211871,0.5643956210594312,0.5548667295790501,0.2918432914082394,0.3789208250424036,0.5605206616089777,0.5896444400933967,0.5705481143654434,0.5566612217178655,0.5499729383945682,0.5617758637848502,0.5282494527039274,0.4966189633272515,0.4604242902608484,0.0790242206557056,0.0827815602665502,0.3613710726219712,0.3990862406973186,0.3354441683914886,0.5551935962367973,0.883640196949627,0.8798350095692267,0.8263594293884275,0.7782222776264542,0.6727802265514362,0.7002162620601902,0.4395047953783995,0.1942753992297565,0.4515963878419615,0.6676873350063577,0.6756389951799338,0.6439635447047807,0.6329076157461522,0.6037594377857949,0.5903635532203642,0.5599127538888826,0.523949211444636,0.5071063023900697,0.2652938168615142,0.4493130443928512,0.6233250569703253,0.6341476948428211,0.6916195804277385,0.7227335468849332,0.6825950944583421,0.5984550989158812,0.6314521691582762,0.6488386967238791,0.6383340289017299,0.6865750360496623,0.6846185779504887,0.7118355934992993,0.7282582931618964,0.7606869941263459,0.7811314064303758,0.6778069041001706,0.6799040466398498,0.815095129944766,0.7780477224714852,0.8740947653411304,0.926467689488092,0.9999999999999996,No
16,0.9633862188584714,0.9463549138132368,0.954278155360924,0.9402771742825216,0.9286867402472624,0.921068661577473,0.9078449782494632,0.8831177713712786,0.7126841872854472,0.6990441369473077,0.8865985986766358,0.9360094505545916,0.6905602676082199,0.5847538320755803,0.8967075062510046,0.9179661749626092,0.9388517074349056,0.94729343037684,0.9526582623734206,0.9502362410101924,0.9251901919256263,0.909539994849918,0.8572409854770628,0.6732823332899527,0.7430603530016444,0.9310805078732992,0.9476253054644468,0.6753076747679307,0.537338942151844,0.8932757581451687,1.0000000000000002,0.9511498830728872,0.966681454485908,0.958082237535098,0.9483685529039784,0.9277566399174006,0.9122691878236482,0.9179243461473716,0.7801062023059095,0.6733862666345034,0.8581015557929932,0.9508547677555776,0.7561669251265355,0.4616973268553914,0.7104542414947026,0.9735431447022302,0.9217005818490728,0.9557878949899712,0.9497521447462672,0.9419926210416298,0.9476062698954169,0.93108218804238,0.9105981556572976,0.8814417050412906,0.7073251263822076,0.7239463939242212,0.910051858605635,0.916492332708528,0.6426973699075134,0.5981901081713448,0.9173456925490936,0.9259884249623112,0.9541922019102788,0.951806328370188,0.9520153151876384,0.950843791813312,0.9293429587890504,0.9139026224428844,0.8929979335647136,0.7206438423981145,0.6545112251470935,0.8541177800987751,0.9316053125437886,0.7366857624077567,0.5319994895696001,0.8443570951255157,0.9577458010077138,0.9268273168349784,0.9457559017049026,0.9508788267582122,0.9503275196564872,0.9405220711582334,0.9230052793421836,0.9183411960799176,0.8558298712008268,0.675171190730744,0.782903602017363,0.9397556552170088,0.8628736441118667,0.5053090094088855,0.4608488907479497,0.8570659788856465,0.9549605840718128,0.9365231413652506,0.9627649693223131,0.9578942225742002,0.9536886455653636,0.9354390353443882,0.9273200666422292,0.9269513447793528,0.8231343248263479,0.6784376829344712,0.8277796555137844,0.9251120064423974,0.7578643326797099,0.5132077882298438,0.7868807044791184,0.9382907650766564,0.9150752246147952,0.9519763724906622,0.965762486326012,0.9684322136460886,0.9445107652861756,0.91450830789412,0.886704632077038,0.7131701838979969,0.6834969913115241,0.8771166707361095,0.908864566023832,0.8303058783846169,0.844203378676972,0.6762562536108525,0.559109652794102,0.7442267394986495,0.8324982509748204,0.8469970226063859,0.8767722298371521,0.8861832439633377,0.8768046200600292,0.8535567460547455,0.8065449229200758,0.822842556755172,0.4595353054822262,0.0367779028018819,0.1970604158110989,0.624393706124881,0.8374540660123346,0.7402645378501818,0.5882777916995166,0.717516755122461,0.826432547380785,0.835327995895579,0.8525053644192064,0.863527562560195,0.8673242530640077,0.8627965884629167,0.8348679776637209,0.8129019741810224,0.3997523681696482,0.0053913948187651,0.2291067456050173,0.6636758526614204,0.8559379774857259,0.7450555254347468,0.5762215206215029,0.7102750271070046,0.8360022330990724,0.8398072092092967,0.8555926334907527,0.8529078102463912,0.8605277286293231,0.8564392007131489,0.8192711587351329,0.8518083243963541,0.5690232760945342,0.1081033190402045,0.1644920622036305,0.5804977590848772,0.837955168247787,0.7751251964607924,0.568221894115901,0.6181688699196435,0.8036339146701568,0.8294511257556392,0.8458124804353198,0.8619222559620983,0.862693817814453,0.8718828905609912,0.8535125430171708,0.8394313544000982,0.7564648491292478,0.2973206697246964,0.0269876301186358,0.3747418274539222,0.7608771529887306,0.8499021191476179,0.6889876201937486,0.5642814828763203,0.7415082170521552,0.8219566181497389,0.8284399205472031,0.850404787523152,0.8587857053745698,0.8674628446170412,0.8476776085637054,0.8542092670717507,0.7483000297864695,0.276600565458714,0.0,0.341105417140749,0.7450988335418536,0.8505481513562663,0.6953895106556531,0.5768802514574338,0.7534416428900419,0.829773991887673,0.8273870631424993,0.8505729072797463,0.8682879827667749,0.8824974576033078,0.8812990124741329,0.8471112619313621,0.8753836305546405,0.5503321128263787,0.0888738529899242,0.1499171215913395,0.583574786047323,0.8594740064510302,0.793939921635227,0.584437624906448,0.6308254691853075,0.8104118865413341,0.8286846660692808,0.836655272260719,0.854980018310828,0.8595845515193845,0.8587153629544753,0.811185805581166,0.8337766664357937,0.5653034791248766,0.10493632046051,0.142560990640687,0.567750816542236,0.8297712993490844,0.7653906807473614,0.5759411605508615,0.6408947711750053,0.8104225452097003,0.829974576287204,0.8457086347174958,0.8522498743525058,0.8611241140253723,0.8652928224589462,0.8371396012494265,0.8523547624042205,0.569964278648708,0.0840161773626395,0.0635065731599124,0.4977112743265961,0.8392113605612235,0.9387023868608316,0.8040993163801093,0.4835919114211375,0.6833733001244611,0.9890844614983364,No
17,1.0,0.8850760085865765,0.8986676071803239,0.8726006055985569,0.8834654159174193,0.8265585743951069,0.6660052056000434,0.6778641430744194,0.7649112140266436,0.7394025290531343,0.7059595187722016,0.8240006743112818,0.7792459810567003,0.8029115328233059,0.8150107888027245,0.7967122818417263,0.7559054560709595,0.644818327456866,0.7020877429156354,0.7921619480036326,0.7668978376804882,0.6154729164910484,0.8400178910089346,0.898169393465273,0.8913943137910652,0.8860109968396324,0.8207302282990274,0.7739546070133456,0.6687241286577597,0.6627235982039528,0.7935176253455394,0.8362012137615569,0.7337592158503643,0.6975070549099582,0.8523418671879939,0.8506958782669005,0.9366501749514566,0.940178183151879,0.9048706969620404,0.8753694970285184,0.7762292953239975,0.7618825913561627,0.8299637613619884,0.832332886552988,0.6888179689912364,0.8599469799170172,0.8924868501712124,0.8628978806088665,0.8922319724713224,0.8688552220147931,0.9127093217201776,0.8827728217888224,0.7207122718588157,0.760209286207882,0.8061107292109697,0.6993389326903698,0.6382456663186016,0.7942086492536258,0.7484485203450171,0.7737519338769419,0.8009236716228583,0.7968915525895035,0.7646373624447302,0.6597812626916477,0.6859172354535219,0.740021809948173,0.6564610347837321,0.6297057038149516,0.8658331293196864,0.8559511172462466,0.8527628744012747,0.814552387160044,0.7802451935905328,0.9020597944833076,0.9025092019360326,0.7527122190099069,0.7479358775358325,0.8086331420355672,0.7825542131502412,0.7370693282930803,0.9720811648928148,0.9504773972942776,0.9243788030157764,0.8654219469763902,0.824176787042187,0.8373030526712975,0.7685096819891473,0.7388253183705573,0.8101553839526652,0.8280492974168432,0.751258252331445,0.8680450627243572,0.8670187507232825,0.8570971683770772,0.8889999292792807,0.9129352552201389,0.9347754806323372,0.948638801283225,0.8382336891539106,0.8283404251886721,0.7664222981298541,0.7071431229606477,0.8206559893123746,0.8189073765011816,0.7970527210230096,0.7730455458962067,0.7423264692743463,0.7316314654487805,0.7410095428600805,0.3708869955736573,0.0692481955394441,0.4692872229175187,0.7051494026475607,0.6752834790853224,0.6004335646175103,0.6699709889596273,0.7140918315602938,0.7103744894991455,0.7565778190121124,0.7958699345428855,0.8391236079240443,0.8387198017347952,0.4651259402282646,0.1500680142509529,0.5179820854596056,0.6835847192989699,0.6443292632275206,0.6231325294057162,0.7546998314098619,0.7732318727042822,0.6666854564596743,0.7125658695886314,0.7560391203677259,0.7590406455658814,0.7499090548695264,0.3746809149580818,0.0,0.3444731999680979,0.6089601155681184,0.6124508551496834,0.5352521256771485,0.5872569399315064,0.6790008337927951,0.6930234842267553,0.6842431757004026,0.63263623796405,0.6376140390895766,0.6394949564261618,0.2368498991392984,0.0234548059529036,0.4519765672129407,0.6821373246964915,0.6651099779101957,0.5939420738849241,0.7343941780438699,0.811366047975612,0.7625510473603776,0.7774038157227117,0.7631980027812548,0.761403286728787,0.776538532958361,0.4100008355374216,0.125550333929798,0.4991697514347972,0.729041684070062,0.6820080552785894,0.6269545467251421,0.7328135933516338,0.772008946522742,0.8086628479917493,0.8227266323947133,0.7882136960528916,0.7259913763959243,0.6603838315942347,0.2296780611528088,0.1291789901958142,0.5802802056292191,0.7112295962503126,0.6355171902576378,0.5174591882146338,0.5956837948925862,0.6789910144507583,0.7281788262038558,0.7850245189670471,0.7658533835277717,0.7974279437025507,0.5929838512446741,0.1405319648136296,0.2779641053674551,0.6517935838269562,0.6576888702477914,0.5663169688841356,0.5497884368512116,0.6687683864157385,0.7028430832757402,0.7108850019720974,0.6984570378431783,0.6787944835243165,0.7102564017884898,0.4097864070256438,0.0913917840708213,0.4597226911595311,0.6637948518209367,0.5929192619184689,0.5104130014770334,0.6518961362340123,0.7610283384957461,0.7578580238791521,0.7805522570666104,0.7663219720013008,0.8249559850720711,0.8236414796054508,0.3863612305460755,0.2282581984306126,0.6661399670060804,0.8157431184879993,0.7545776518310343,0.6396474868982733,0.7356985670178116,0.8022878329778975,0.6990398105114592,0.6645739995329021,0.6633861540279007,0.7083720752421252,0.6925531558723739,0.2979435710455518,0.0654018073939863,0.4663233475174788,0.6467292581663457,0.6049643752743181,0.5418585019689512,0.68492395410366,0.7320495093762842,0.7671665208640315,0.843062973474975,0.8774633592464012,0.8369668813244675,0.7876192417307104,0.650188958500661,0.711259657670579,0.7546715056947204,0.6761726782565183,0.6174865767724849,0.8367034303589564,0.8065912006521914,0.771134904794899,0.7786786025528731,0.8507099103014593,0.9231306920788382,0.8002597574166268,0.7896176589065682,0.8943558163483312,0.9403663047395244,0.8185608822772004,0.8511892723692123,No
18,1.0,0.8186705297107219,0.5576549217017432,0.5841916627928289,0.8583108333762733,0.9735766297748192,0.9212194709597962,0.8959235022297395,0.8677126260615863,0.7953748442857344,0.7970173315202761,0.8208091085309123,0.6334356931726206,0.554705431540613,0.788608073384449,0.896442603317615,0.8799802255461885,0.8779972783943429,0.8654903415462355,0.8130969468128039,0.7723528900525237,0.8404154401947618,0.715965138910739,0.5067056438872705,0.6343981419270437,0.8696129440751456,0.8945047724721854,0.8755154975820963,0.8641143135178438,0.854968324965517,0.7800697161590763,0.7735563592805464,0.7779080406681372,0.5747636514467078,0.4415342406475402,0.6658736470872905,0.8476849514441135,0.8152705165104185,0.8128687570304781,0.88542548675349,0.8907071101482652,0.8002105157737492,0.8461370136031726,0.8449593062029935,0.634638727300141,0.5720104576240458,0.8076271022596268,0.8842546573523148,0.8669582238260488,0.8804930668551366,0.8694715334310489,0.8232751673587658,0.8139316822882102,0.8442489889161285,0.6713682926727792,0.4093683349461781,0.4424788500098312,0.7251758619575238,0.8900519217242057,0.8898364072095156,0.89569503756996,0.86841293374173,0.851304832032617,0.8415143507995447,0.8670921602861287,0.853342008810901,0.8230265727416738,0.5949243706338605,0.2978071298398027,0.1355253510641886,0.3280169409179622,0.622277080131922,0.8073192442410454,0.7706580415044902,0.7931888153947827,0.8429458423929467,0.8518298570287545,0.8340787552998948,0.8417786620694395,0.7283715961267097,0.4421303171578565,0.1794247211450071,0.213243570467314,0.4887142969702339,0.7565173875712113,0.8355525908042255,0.7543440922639072,0.8300969850452579,0.8637877654848815,0.793965902386656,0.7735014469638829,0.8035960712321578,0.6431503254941423,0.3434956254198298,0.092687269011869,0.1892654298189038,0.4837170362432684,0.7257832581334165,0.7479543111232403,0.7185902091522252,0.8158492562561462,0.8343535083560477,0.8443524668678156,0.8576705485114956,0.7638943639731498,0.4786274843573839,0.1991802614061321,0.2130049639042101,0.4959091071832446,0.7536021275798873,0.7902675830327656,0.7252910978715931,0.8103316719150909,0.8406331581260978,0.8522646229302583,0.8466756977314697,0.8224759765510331,0.582013145100141,0.2800084103944703,0.1270704800594156,0.3402919950415961,0.6325607106094886,0.7962175456007138,0.7399582147649778,0.7733540625117951,0.8406766630596038,0.8676942808492644,0.885696520151675,0.9176248483753324,0.7310101806964423,0.4394645788864019,0.2325447743876695,0.3598188004140409,0.629269174479997,0.8886921328718013,0.9584200011855638,0.778142880391011,0.639836297503275,0.6797418559310946,0.7293845865021364,0.7546150638274084,0.78272216335771,0.6303034320743144,0.3314249256169256,0.0824783931480754,0.1832097402973373,0.4791868440020302,0.7265436935300366,0.7479155003731205,0.7257649761073638,0.8275637230775609,0.8571894671166044,0.8570602239423787,0.859974362203754,0.7409874937839975,0.4490126650080609,0.1818411233633801,0.2346520738023802,0.5227498467981977,0.7673313459352747,0.7830700970278707,0.7506121242963048,0.833469520004218,0.8389537961372356,0.8454659819322871,0.85020058801463,0.8151149575194468,0.557554501044212,0.2610877244199893,0.1809206137916698,0.436932714938377,0.7201357909290237,0.8333312156194229,0.7706663924893845,0.8253840170213834,0.8302157486530722,0.7994192233298637,0.7686861662827603,0.7165185175291429,0.4722340283495043,0.205109942476375,0.0,0.1207718153315393,0.411252648666523,0.663691336491529,0.7863496891272505,0.7837672607540983,0.864573251110785,0.8339846594999231,0.8120196536127674,0.788366943481081,0.6976232898387396,0.4349748995572278,0.1516244898299292,0.0850687013555617,0.3466562140662337,0.6396288113086632,0.8688323399160306,0.9492958047671122,0.972473934295234,0.8926616571024398,0.6552158768316929,0.4174719738674429,0.5210498897110509,0.7650508836524078,0.8219900395056244,0.8404975211015472,0.854793501284543,0.902778124757729,0.8381448287292316,0.8213049359666486,0.7522277217466934,0.5504669842198329,0.3106507952008052,0.4034080887818141,0.681515358574667,0.8016458414599624,0.8122364621628685,0.8406352715501707,0.8706988130079606,0.8297054674206233,0.8331081760253546,0.8623419004250125,0.6816760447049734,0.4924200977203657,0.6687142357147419,0.8942025308779006,0.8899271032363808,0.8735399120683401,0.8690575094539194,0.8664939229758614,0.7938026237069088,0.8069195920574462,0.8264026594581825,0.6232007916394936,0.4000156506691565,0.5389360890576912,0.8146475054832235,0.901463909851918,0.8885986873106916,0.887815130789979,0.8660956902628184,0.7764479805507912,0.775425137681829,0.7827345259841584,0.574333471526255,0.4209204682118159,0.6326567260836357,0.8306573712721103,0.8042474564596921,0.7733372560449018,0.7271458868339897,0.6859880115825424,0.7489194095269985,0.9504820656639436,No
19,1.0,0.9467851698821556,0.9537093992054916,0.91353910126023,0.7856388894402389,0.6329626203297911,0.7565190281276104,0.7935796176450105,0.75565312224454,0.8783473864327069,0.8148408683825958,0.8725693603906501,0.8622114834249754,0.8487283586619885,0.7397037171639989,0.6970811095268483,0.8054629816948911,0.7244710620180745,0.7646412080443361,0.8699732094048587,0.8139295185430582,0.8681618630553141,0.8443247476545412,0.8457152626035835,0.7385914927257451,0.6545127186556776,0.7837459712590849,0.7372513142976715,0.6077016729178597,0.8519181556954267,0.8125743317040097,0.8241598195266144,0.8737829441636333,0.8815722018299526,0.8415741359269973,0.6813715668243483,0.6215317869769801,0.7694521175258209,0.7525149495350472,0.7901223465894485,0.8525379704086653,0.8028473950119723,0.8524468455187497,0.8129105968591923,0.8044404271816021,0.6846023254592981,0.7183811187901687,0.8640354741397673,0.7357815036392625,0.7456847146697783,0.9044481209570456,0.8591674004971863,0.884252930981992,0.8532342507122812,0.8257217101169365,0.6802487568524462,0.7432175863371557,0.8188800994367456,0.762702442070359,0.8510880441665272,0.7976488281371767,0.8476047711466141,0.8598669746739267,0.8401081198727534,0.6701457328479683,0.6951543399349331,0.849147853503704,0.7630803823464887,0.7933861400206856,0.8950505649376801,0.8413072949798774,0.8983559125832379,0.8812028218696981,0.8636951949696758,0.6932394555340009,0.7118470881355043,0.8148727282239028,0.6420917160815187,0.6371301652685513,0.8377405204469754,0.803087080935255,0.902130860228064,0.8692977693493127,0.8007757111869442,0.7269597237789727,0.6154296790463092,0.7489310972311514,0.7594856728106447,0.5955346883462118,0.8653478630149789,0.9506824191986576,0.9036378236778142,0.8308305962686853,0.8693287469110347,0.8380226304701099,0.6746414543160091,0.7547785136518574,0.8477649908377765,0.7043043477753228,0.8187320821407091,0.8547425382190119,0.850736122186198,0.8673115459605572,0.811941013216742,0.7412356989273112,0.7649582811628384,0.623655513016022,0.1528226353045063,0.2247314963852678,0.6587768984001858,0.7155043868202373,0.5788186684692493,0.7019478269034631,0.7976518973240379,0.7327101826511564,0.7883791845394224,0.8148922006824391,0.8452652532698082,0.4450607968185882,0.0,0.2268213076073211,0.6300495043425949,0.6413403411145895,0.515668025200331,0.6555993111119616,0.7248767946109602,0.7991553111292236,0.7998859302601677,0.7019528502453465,0.7218119195182826,0.3527312206595043,0.1026884105391587,0.4858682703741261,0.7108648994266349,0.5948909696011704,0.6484869344675048,0.7941665072720561,0.811305541810043,0.7909022187101153,0.7482011326040015,0.800830637003104,0.4113892117624038,0.1651794892975813,0.556492424629794,0.7282524386462228,0.5631757851681809,0.5857330178263491,0.7618486143270187,0.7740257839193512,0.7531725852980959,0.7083639021110546,0.7099189355370323,0.3080199848236615,0.2446385488930587,0.6270113193993074,0.7044890682061671,0.5740447942623512,0.674716875218079,0.7648416024131897,0.7959852811963715,0.7946560138863141,0.7728553795016206,0.7709405230351316,0.3370778480078193,0.15889136558761,0.5809829151390038,0.7697403653726402,0.6119983223765826,0.5735279989127431,0.7161703812573128,0.7322340229910713,0.7729630881093135,0.7225634729314634,0.7393099192369679,0.6563457106942314,0.2024066671855697,0.2642488659787223,0.6523861841271157,0.6344910410377094,0.5096418364105579,0.6768392133647336,0.7823571814161077,0.8181803733122308,0.7819786604051147,0.7207016546091376,0.7532560073614727,0.6000364774035014,0.1738543842764732,0.3571970716034096,0.6879228906059467,0.6202619736128696,0.5643805685587675,0.7381375420205587,0.758447819880455,0.7802359744474394,0.7491578215409196,0.7236588085902134,0.7324132378080233,0.2969040617871714,0.1811206360912756,0.5957437978411666,0.69902496363735,0.5828674730627785,0.6932035909255987,0.7751344585019884,0.797486352414968,0.7612352840742282,0.7399962527391692,0.711474887577404,0.2530481479160875,0.1265676062950596,0.562849965405229,0.6891501977869021,0.5480091139273608,0.642444154789136,0.8192355348133065,0.8669225364315629,0.873346039486802,0.8717041125123886,0.8051444064708808,0.36180479789205,0.0034054119435884,0.3303776346051172,0.6392409255240015,0.5386490763303247,0.490198822875616,0.6928889629589401,0.7469924526538669,0.7598634790387648,0.7334854092562573,0.7132365170887889,0.2837320546441648,0.1834503776726315,0.6088800701657746,0.7164137939359181,0.5590692692070038,0.6486328233905545,0.8072340498285024,0.8692624053556379,0.7813457560273989,0.643613809280521,0.7839461629965121,0.8084878240701165,0.6616851370381096,0.8468688757343212,0.8229771548152032,0.8487609431287457,0.8259553769025167,0.7947585788888936,0.6318687642151617,0.5785380895048626,0.7360908674251148,0.6884056267679344,0.5871816985970257,0.9057395616696752,No
20,0.9828200668086088,0.8555571054311204,0.8820777430635425,0.8559228761692421,0.8458890643745778,0.7456983331240692,0.689902259460117,0.8251484717335913,0.6957790968538844,0.4088061170150365,0.6494486788658378,0.8650039650547989,0.7731420147707628,0.8014379382844217,0.7844891933942675,0.779463625329265,0.7086560730210794,0.711955511001495,0.8803551078454066,0.7832534276035381,0.4486684910367728,0.5752701102565112,0.932915786417856,0.9014609366134084,0.893662275567324,0.8813478197716007,0.8485237216325463,0.7706205578043313,0.645886979324966,0.7834631430313159,0.7867523780629071,0.4829489208478472,0.4327780738153381,0.8484848486976801,1.0,0.921287889492724,0.9277553591747352,0.8749024848755251,0.8432705536351608,0.8937097150634576,0.5930558492014697,0.12186373228409,0.0903240284043442,0.4981619203845935,0.7373162085291418,0.6263204626363059,0.575576728929359,0.7440060085144284,0.7874845620436255,0.8199344214849855,0.8006655803328755,0.846069196396817,0.6520030886035206,0.2062503966954962,0.2364538802566098,0.6466517626352948,0.8147177648177792,0.6440048854247729,0.6083866440624246,0.7054638900809791,0.7137121249402343,0.7364088689653121,0.7012644857569144,0.739788630750978,0.4992929579780472,0.1192997984549149,0.3168218346916398,0.6928791233593374,0.7342407632170467,0.5701491623587209,0.6671937482344084,0.7710259829012198,0.7893702315190758,0.7955903175598098,0.7807328432245821,0.8157965730858865,0.4374011613528099,0.1302800189096244,0.4358408500730633,0.8016560251555958,0.8184533059609791,0.6172700963835944,0.680962212311782,0.7647183219939993,0.7825920982460874,0.7815935558088518,0.7562283112067743,0.756748365289285,0.3634798356048896,0.0722511155259439,0.387723407631894,0.7465382057629237,0.7650122918265092,0.6138486982416453,0.7120384073135555,0.797671397056833,0.8063493639047676,0.7805204962800465,0.8089893713088929,0.772551393887928,0.3563184803052084,0.2870290489069542,0.6686070934985255,0.8166113053640238,0.6663553932094604,0.6630409457943083,0.7958335580376175,0.8079047647361346,0.8090297956714929,0.7397996346050792,0.7738266570754968,0.5845816718673231,0.1700645239368572,0.2767820358159476,0.6671446152182083,0.7515964104239705,0.586075017565117,0.6428008684028117,0.7669090209236225,0.7921083883670836,0.7928889463692772,0.7761463987439154,0.7966923285116128,0.4050067821770056,0.089866072391727,0.3920050368302419,0.7730720639242565,0.7943349753231415,0.630653745998428,0.7401888325557118,0.8209674966165532,0.8221575888242083,0.8052203446971342,0.7749015542257873,0.7552600796550557,0.3457153904712586,0.1330039505729183,0.4772178269435811,0.77258521917615,0.7050154066712833,0.5812520960603069,0.7281213401144138,0.7753734415772007,0.8102328125176639,0.7912103721154486,0.8492991139662291,0.680194893103931,0.3472540949308931,0.5792166700768724,0.8669695841351133,0.78260655863266,0.6536565527669733,0.7799414761743639,0.7756218065846299,0.7369871235364531,0.6714297967127969,0.6675583930523312,0.5133849840893108,0.058686472668783,0.0,0.4078151428614744,0.6452620692191022,0.5435129925758195,0.5256128818703263,0.5788674696904712,0.6497740881125691,0.7614937674897329,0.8026047316129086,0.7094744456859186,0.6851611331493674,0.6032770565407932,0.6601888514373964,0.7298465795407991,0.501696355024543,0.2937946200430279,0.6294780767884793,0.7824501290587449,0.7356163248439529,0.8081700258630833,0.8381854251947858,0.8672143179001726,0.750588971892344,0.8324474223869665,0.95168888864595,0.7378856654507042,0.608585286943955,0.9155282209876248,0.9350794762499874,0.8830771779167863,0.8783921924578784,0.8488233767899125,0.8126375465441584,0.670138972187428,0.7799496907267827,0.856121596804444,0.6113464253499439,0.4440491321095001,0.7854797768774162,0.9154277037739996,0.8467302618284629,0.8975695986889778,0.8948741480721463,0.8773606077595058,0.7369300727868615,0.7929762769916131,0.919996974580772,0.7375334441958254,0.4641131318207401,0.7529148855556977,0.9600965385311268,0.8501987105227684,0.8748933934941352,0.8659437620219741,0.8558514709015834,0.7686155845729528,0.664348451338244,0.8203287749809944,0.8104528245613078,0.4904249384349919,0.4644495166744999,0.826972652236309,0.8645014055751035,0.8237869730679974,0.8902777070666397,0.8839653925368318,0.8800820050960643,0.7708633271947023,0.7461736963251013,0.8957267875986883,0.7891239191178232,0.5104129204636725,0.7503926952926303,0.9672149773947064,0.8604790810621341,0.8744136825949229,0.8791870408441804,0.8723153388554019,0.777810058253646,0.7061314819362061,0.8569132893905946,0.785492330619733,0.4415616147914678,0.4912822418272413,0.8748983254521314,0.871827443450186,0.841942562381619,0.8648683725118023,0.8427507754432559,0.8025394077050296,0.7014057553986901,0.8693865743997002,0.9418339739097048,0.7029604744637532,0.5160502813602532,0.8527309686842397,No
21,1.0000000000000004,0.6129457427127893,0.4937472152161866,0.4846740205999436,0.4758304843803542,0.4604903618313383,0.4628408713923893,0.4572223358744871,0.4590291863702114,0.4066011656254495,0.5035623970325189,0.9621422721226564,0.7945669277217209,0.5347827643597713,0.481249198945779,0.4660449374322239,0.4491784496952467,0.4526504301891481,0.4624627368904228,0.4596154418174714,0.3854556486468001,0.4875415053222047,0.979846503528798,0.8347996723384612,0.5324918128458886,0.4501026316356795,0.4740157895536199,0.4699603424176044,0.4484437845586129,0.4701872914144127,0.4710070657536476,0.4380999295557219,0.4519320437517229,0.9122681933158724,0.9611587386986788,0.5989126766429438,0.5008302765339865,0.4952781721569304,0.5033491666590382,0.5130701421724058,0.5527584196611146,0.5463111401851313,0.4471406545990555,0.3378994286676859,0.6480421098736873,0.9518108711379072,0.6042379807268246,0.4455174308201455,0.4307376788823429,0.4473982234153646,0.4543088113529414,0.4629153204958456,0.4896953284427927,0.4780176214743541,0.3924156600397772,0.500860945228804,0.9864387052008454,0.829448275133474,0.5596445933299763,0.4963634446115845,0.5002944487805081,0.4708516313936339,0.4673686910563779,0.4950918943304554,0.5008285940838793,0.4401350404516,0.4875685510053937,0.966618372788098,0.857778201961422,0.5524541353441452,0.4909257742361439,0.4887212778298662,0.4697610330392732,0.4689688743236497,0.4826071542544552,0.4898779513179483,0.4278466623552317,0.4802455311904881,0.9472863243310798,0.8217556733217388,0.554839817850135,0.4819725469509293,0.4546711106253416,0.4421748902296039,0.4469146074953594,0.4682754224793255,0.4776233906012272,0.4520573818762279,0.3943905078051823,0.8202139288357331,0.9321860304950048,0.56650667250651,0.4698351349725556,0.4659346934787942,0.444649156011216,0.4274612520121756,0.4604381276589957,0.5072158456133513,0.4868468291749321,0.3903281322242691,0.6340691869635817,0.9994855450328956,0.6836368989919275,0.5084299871012026,0.4916255071234898,0.4938885908256916,0.4895472111849237,0.4828581281538051,0.5064619116731253,0.4945097297151943,0.4231559448518864,0.3590910520818497,0.8091266301018032,0.8915565122872535,0.5748987188206569,0.484955789340503,0.5065488430991705,0.4854295105327613,0.411525989198652,0.402668935149983,0.3757822112198892,0.3859070660067538,0.4967310479780349,0.3919514004707212,0.041317890085363,0.247207211653007,0.3823612647214496,0.4085491165688939,0.3859292915597372,0.3786071314358459,0.3915134566913147,0.3714454467451933,0.3872721912406169,0.5373684086059187,0.4826908872193276,0.0875705695790189,0.2118475930150052,0.3784784294353058,0.4038368782514272,0.3414921003427889,0.3235028100867909,0.3361981733885248,0.3559828656282797,0.3517295448386877,0.4149912213069164,0.5559711989835172,0.1962759782484977,0.1377595006749983,0.3422896525547108,0.3704258112833489,0.3659518830733788,0.3387599656927671,0.3298944706726265,0.3431060965079111,0.3555318703989294,0.422082168455689,0.523511543828961,0.205925377228537,0.1344656723157844,0.3464918529750878,0.3870813594722113,0.3668162252331393,0.366559169119574,0.3882875062508701,0.3839526710992516,0.4028110897068067,0.535201185541045,0.4005717568613853,0.080850478932636,0.2949233905376967,0.3910933637761906,0.3912345404590471,0.3727924949110988,0.3664066190523898,0.386567377493344,0.3908261095466416,0.3882351024680766,0.4905150281142383,0.6936138575856803,0.2986362199791688,0.0664875461780369,0.3018487758836738,0.3851374205301425,0.378961082738888,0.3577824867673844,0.3469643836226694,0.3358315975041108,0.3091692801969126,0.3688509756361369,0.5413013845518613,0.2723561034167927,0.0447382753222176,0.2586208920979911,0.39746184442081,0.4592303276121483,0.4204379479656865,0.4064308760322661,0.4079457304472096,0.3766588836039775,0.4164833521502626,0.567676698366006,0.3781374374007518,0.1126629553959626,0.3016162069267696,0.3599549282905521,0.3748450499826545,0.3486090778026796,0.3678043125895329,0.3814292364642173,0.3481434479807275,0.4022761756688093,0.6021641005296128,0.4415352144903646,0.0,0.1641658824018659,0.3426066500726534,0.3618918052204631,0.3474537982601737,0.3418869548519829,0.3562183105875549,0.3722666951471431,0.3825151613853008,0.504377938775074,0.5756164426417802,0.1487177338302174,0.2043292662868059,0.3463285788843535,0.3564512775246684,0.3566351201830096,0.3569816580474492,0.3644752731159406,0.382498629558142,0.3760281004896444,0.4522255707849489,0.5696341363333057,0.2477229882144938,0.2296754613930027,0.367501223897956,0.4010546400902468,0.3890471818559935,0.3693332250567138,0.3710839660641252,0.3744341437414054,0.3567115743401889,0.4398569424000662,0.5218715584319926,0.4810514428809673,0.4869754515547981,0.4717673235168234,0.4738222355006871,0.4965128044104339,0.5015731201791884,0.4656060897078107,0.4679430750013278,0.8935611346688588,No
22,0.8805681308352589,0.8393206979903867,0.941135085456288,0.8449787125303811,0.8701493712044432,0.836666247482988,0.7655067949861265,0.7487894158141577,0.8771549310727536,0.8993101620516675,0.7314291085332187,0.8792724786799191,0.8342924402319349,0.8830411202424129,0.8139969536542777,0.6204359498561942,0.6371029531663623,0.8517267078180648,0.9098396009654436,0.7694629095376682,0.8733905692442705,0.8319840229370707,0.9186938837756768,0.94693313244082,0.8428564459716381,0.8327701296701568,0.9469385198171092,0.8247772703056535,0.8912568386786517,0.9555874124494824,0.8742606099741446,0.832953545435763,0.8017821062007839,0.7693510644295731,0.9365107585065836,0.9668450956790792,0.8048200398526144,0.8934433248290343,0.904428987425118,0.9085509903841033,0.898248847047046,0.784409579909576,0.8109469766231046,0.6062506291183332,0.1988480474863778,0.4921181904510336,0.8199330232037205,0.7811897902477476,0.6269138038898854,0.7046694290178483,0.7374159936822013,0.7718162075372792,0.8364143261929691,0.7156422114896928,0.2417024041129565,0.217505372935185,0.7041627855477488,0.793586220704185,0.7025891116024403,0.8154542156976308,0.8347696137726586,0.7463524624751288,0.7469085303561118,0.5910503668969769,0.1248406161878437,0.3226241932034339,0.7569331471378442,0.7298164229082973,0.5030675848231572,0.5323959664929623,0.7270429321521168,0.7814915564005331,0.7228824921368382,0.7656970509512826,0.3916631007058169,0.1316433398242176,0.578616550332606,0.7891503604376444,0.6880799963633537,0.6313748200569109,0.7438094201769547,0.7705295949051059,0.7663454538569971,0.7780300471472623,0.7556518208988963,0.2639597330945711,0.2120803170866407,0.7198526075550675,0.8683175628708777,0.7618206500707188,0.7733578946564932,0.87899807922143,0.875104760827663,0.8130020079518756,0.7656921633352369,0.7517698506390809,0.2680042747249462,0.0462876047081066,0.533194639114841,0.7720011869539234,0.664903011283597,0.6340418670226815,0.7746048303942135,0.7914837649139423,0.7647171891304954,0.6732107159115168,0.7479057208368398,0.4913589259159767,0.0,0.2090192664192343,0.6959005356498125,0.7505285723775548,0.643831622200302,0.7692141735741811,0.8262731770327272,0.8032652490106273,0.7569243105941466,0.7941345826578656,0.6949250719420372,0.2064252743851611,0.267573903295029,0.7104696107699686,0.7383932504408723,0.5933470205870539,0.6598504168241992,0.758941690257342,0.7488603390965478,0.6568884820579388,0.6925202914328352,0.3530671928496591,0.0748609080145441,0.505509907230485,0.7386415653112288,0.6452418875123893,0.7071242424903863,0.8085549257525853,0.8071602782863927,0.7537823767520178,0.8195561428877398,0.59040967097188,0.1014548590983901,0.3008235435254822,0.7586918512271947,0.7839903724093871,0.6565299950569541,0.7930190063382438,0.8425951834625267,0.8364726159934115,0.7602835970865578,0.8049479817696876,0.5878000232575666,0.1340840909237113,0.3859886067667788,0.7824253109588568,0.7321430944457483,0.5999714156866203,0.7291837902891856,0.7832086448583127,0.7989749741617587,0.7592715304773883,0.779151556930783,0.3401835879137111,0.1600725390728152,0.6341701748901087,0.8101408397943461,0.705416972166478,0.7008105902130408,0.7764947879609401,0.7856569562571782,0.7198581418954935,0.6588631922074311,0.7183858181364302,0.2822015585964355,0.0695176117818454,0.5567228051340001,0.8279623772144609,0.7673160870025542,0.8613970222111385,0.9583472387116756,0.7963656558066536,0.7061191489964131,0.8724777211060037,0.752225743589916,0.8488818937022522,0.8746375254103169,0.8680159456044341,0.7760389471272187,0.8394907506171991,0.9277612463197644,0.7857486951553843,0.7681329270594235,0.9286805011050628,0.8471874120931875,0.8979116972584413,0.870829356425038,0.7857204354971739,0.727558956494728,0.8795986578976951,0.8988337897835899,0.6606949714361385,0.8889392011192818,0.8891349297957234,0.8991613469067339,0.9309419106770292,0.9381206218608776,0.8398346112201955,0.7902886502971715,0.9065779416605624,0.915153458573602,0.8123212698212283,0.9253729675477328,0.875194396079856,0.9065602298223232,0.9007713995898308,0.7993610694833619,0.7581006456560582,0.846230311628112,0.7428599863867884,0.7447301646498934,0.7972292146649411,0.7911886291892527,0.8516629444891421,0.8303329144586375,0.7060820877385634,0.7728968286419415,0.895134404723898,0.8207110731525082,0.7575017166925835,0.931206723782002,0.8549175450721989,0.8897509793970464,0.9049771295457352,0.9141326141741316,0.7791947291287058,0.799022867027849,0.883189975547046,0.7151153268326196,0.764700540856321,0.8426747428035015,0.8121305862033519,0.8822560934908954,0.8882852465260225,0.8287501375239295,0.7142717045457956,0.8351690106918497,0.93573010258577,0.7538219096741408,0.9033663913553428,0.8510941835432977,0.9148947026230964,0.9684148303941584,0.9717950746023484,0.8641241605833185,0.889966924364678,1.0,No
23,1.0,0.9451796657767044,0.8910810749787959,0.8918323200852709,0.7942678069739539,0.8695482211442196,0.8481850933119746,0.5934582367143717,0.688741555190006,0.892959914125399,0.8179329497150369,0.8003498708378818,0.7547375818035269,0.630343467800502,0.5888720721467489,0.6702953684954247,0.4697062824124809,0.4153094907985473,0.7088694463125031,0.7286858894263675,0.7262169118185411,0.740224773599115,0.6631158793903393,0.7339288359857592,0.7952860876320795,0.6053393288328137,0.7346364639651035,0.8940295240156746,0.607293012415536,0.2261648035168081,0.1531240742995353,0.4652034459438976,0.7259007704966125,0.7025558552878246,0.5882177612249346,0.6759979166921815,0.685733320415977,0.6409086017381516,0.6620331211843362,0.3707369248208847,0.0,0.0709440584447163,0.4381671597486691,0.6087479554502748,0.5034922823566306,0.6026164360467621,0.7174686086701132,0.7483752934861032,0.7839464696136562,0.7363125914481834,0.3645724634449963,0.1237191249338497,0.3964953894981871,0.745455424706388,0.8273364765672102,0.7275276071984733,0.83119039981507,0.8375912553135239,0.8644059453746304,0.9209326897475658,0.7376358200142126,0.3392123718956825,0.1969707756623039,0.5255648255716228,0.8237229132253554,0.8011337011311328,0.7827353832406805,0.8491643016950983,0.855300604306722,0.8288149341700546,0.8334643316949126,0.5377296517995669,0.1819555990836967,0.2677780512178564,0.6334173509240004,0.804986644348122,0.7325568097593647,0.7988742950028944,0.8074767364855975,0.756650450960132,0.7268094919558836,0.7341209508182054,0.4043206293603503,0.1006411194724966,0.2857696680277197,0.6353224298177451,0.7499618059156226,0.6748329713726304,0.7729247488878253,0.8125982942015875,0.8132618065969437,0.8395569365843278,0.5627194071700652,0.1997571853353938,0.2895069949289226,0.6523282191730215,0.8026895467265824,0.6865512261360192,0.7635859082834227,0.8311998669177934,0.7973643649113822,0.8083913997297196,0.7222027043415147,0.3419394700661946,0.1607876280113144,0.4737504135060586,0.8115094969072738,0.8216433173208193,0.6131524502499806,0.6642482515916137,0.7696090412761742,0.7969499910178761,0.8184042999527514,0.7936507615319905,0.4429451837896607,0.1752710722044257,0.4196292571573303,0.7116701034263546,0.6755001564931156,0.6524885939520673,0.7716025456333686,0.7920891410391979,0.7743299296290789,0.8488729832883901,0.6976554797026944,0.3035034335103657,0.1473940955856384,0.4644727204078345,0.7646226135432836,0.7451660949666055,0.7173508824556927,0.7975745136982781,0.8110309680243579,0.7867683397441245,0.8142733090416929,0.5302414122137258,0.158559534227736,0.2255201990992417,0.5948404082316479,0.7895394592918401,0.6911014590731064,0.7252072195040427,0.8046240385154653,0.8174779501807004,0.8411590605440293,0.7379641316413026,0.3502194700638095,0.1581073846118104,0.4626136511592005,0.770904559323917,0.7492635189813319,0.6977493733894604,0.7980487741610012,0.8161368233807345,0.8047372414711738,0.806914382764528,0.4902640154433728,0.1522382220582722,0.3050456890141655,0.672377338276021,0.8145259863270418,0.6956234314023342,0.7829019384217495,0.8841044005067673,0.9252934577781486,0.8571041022155064,0.7591897582410532,0.8673853381567216,0.7573359805527171,0.5278413175537267,0.7449909688303793,0.9022958130770192,0.8633155622295523,0.8684790349547182,0.8371102438199887,0.7424268422094709,0.8387491755565952,0.8049318377893397,0.5797859420811924,0.7715409467238978,0.9369945386436592,0.8690603673779531,0.8728034163621221,0.8218607440980565,0.7327858420675573,0.8210631082044,0.7852877772271774,0.5480643007160055,0.710451295728064,0.9106684680669082,0.8440388034034196,0.8631856432542928,0.8511639626861451,0.7769855950976718,0.7983301177301625,0.8271447398721135,0.5818313560600532,0.5757224370367569,0.889190205424423,0.8960788922073826,0.8309995062723725,0.8425467483735145,0.8062111610685112,0.6881876680294083,0.7674866806305585,0.7571331185883232,0.5283382558612064,0.6888326294521079,0.9281588479613634,0.8665425737760661,0.8476789446972508,0.8123515642422738,0.7061867362378569,0.7208567586965251,0.9227218846201044,0.8196325143347583,0.5898191387677936,0.7944836746361643,0.8933793431423926,0.8457300808389903,0.8844024133903781,0.8490321765154072,0.7407642148940761,0.8391989470102528,0.7897205789902306,0.5406908625269136,0.6981613492902965,0.919651065173828,0.8744855010252419,0.8633915907415202,0.834961950811149,0.7459727251133907,0.8024683461826516,0.700305593590917,0.446462353002534,0.6293105671807118,0.8615113886958776,0.7898350684830411,0.821219930150934,0.8674135224150519,0.8305368705664218,0.8153853314044792,0.8476499468621161,0.609630157957409,0.6205033105390405,0.9200142240689102,0.9118926153491416,0.903241646526231,0.9033486864300456,0.8497508662894768,0.845717615425152,0.9136718751276218,0.6983776947242815,0.5677163292588225,0.855464814662984,No
