,0,1,2,3,4,5,6,7,8,9,10,11,12,13,14,15,16,17,18,19,20,21,22,23,24,25,26,27,28,29,30,31,32,33,34,35,36,37,38,39,40,41,42,43,44,45,46,47,48,49,50,51,52,53,54,55,56,57,58,59,60,61,62,63,64,65,66,67,68,69,70,71,72,73,74,75,76,77,78,79,80,81,82,83,84,85,86,87,88,89,90,91,92,93,94,95,96,97,98,99,100,101,102,103,104,105,106,107,108,109,110,111,112,113,114,115,116,117,118,119,120,121,122,123,124,125,126,127,128,129,130,131,132,133,134,135,136,137,138,139,140,141,142,143,144,145,146,147,148,149,150,151,152,153,154,155,156,157,158,159,160,161,162,163,164,165,166,167,168,169,170,171,172,173,174,175,176,177,178,179,180,181,182,183,184,185,186,187,188,189,190,191,192,193,194,195,196,197,198,199,200,201,202,203,204,205,206,207,208,209,210,211,212,213,214,215,216,217,218,219,220,221,222,223,224,225,226,227,228,229,230,231,232,233,234,235,236,237,238,239,240,241,242,243,244,245,246,247,248,249,250,251,252,253,254,Target
0,0.3422980788390757,0.3386240952276029,0.3267378275312458,0.3262406218479836,0.3245629143897575,0.3115857028770508,0.3044291343623913,0.285405450298819,0.2811346030195434,0.2567479136181529,0.2032165608604987,0.1476269188337999,0.0987310454718546,0.0663398193246433,0.0194025234015002,0.0,0.0059789802256551,0.0571586159172636,0.0929277581510081,0.1371569550553197,0.192697978255802,0.2476933641059884,0.2810447458638343,0.2892418296407166,0.2668711420487124,0.2491905882187484,0.2459314444519189,0.2463700019672416,0.2611401792074335,0.2828629527455888,0.3085619651530185,0.3306215477912264,0.3536818525986551,0.3672910513001555,0.3743999602186898,0.3757997515814137,0.3887249521675904,0.3904923491740604,0.3904930573077956,0.390493057307796,0.390493057307796,0.3904930573077969,0.3904775907202791,0.3851928282228103,0.3795371292149987,0.3902607867812033,0.387254212725646,0.3653063148114204,0.3470351125683102,0.342851749579228,0.3601122895740261,0.3960004914299277,0.4213747394430664,0.4214987268152144,0.4120937639797897,0.4307922515375852,0.4243535815934645,0.4105759497024048,0.4048817185442144,0.3813283701089771,0.343363624302333,0.3052204194599848,0.2948534815585431,0.3204264939775325,0.3645553674498498,0.4147608744813591,0.4699050643699207,0.5138369703009658,0.5655554878768174,0.6211698382899016,0.6767384633595959,0.7255197443382735,0.7720943274099055,0.8275946879597913,0.882901518007472,0.9277647823200152,0.977973057519698,1.0,0.9506836879810808,0.8990471785411129,0.855049866255039,0.7998946047007562,0.7498039875196065,0.7044388258757968,0.6508177448386587,0.6081326710815738,0.5553944140836151,0.5158368599019547,0.4786629414050116,0.4423083104252097,0.4144394504840716,0.4039891072246151,0.3816038787046354,0.354296078529575,0.3342572353505773,0.3263083121228085,0.3262404791483151,0.3244437961622326,0.3082253490579405,0.2943757859175484,0.2823479793677701,0.2686216478111536,0.2592182320100842,0.2466976039238217,0.2471674501324106,0.2625805765672484,0.2930754337444443,0.3217231327725072,0.3420804968622759,0.3559369211437917,0.3654913230310423,0.3743701012746134,0.3811892622845492,0.3903531056739586,0.3858634268562579,0.3747838375385952,0.3744301166246142,0.374430091947227,0.374430091947227,0.3744300919472274,0.3744300919472274,0.37442417864494,0.3706024791775584,0.3486736542904318,0.3423926136770299,0.3499718905825939,0.382069855414191,0.4075363956253737,0.4147988975712642,0.4089699720588915,0.4189839863841027,0.4074071591261305,0.4059477833843923,0.3926638197828,0.3682966047781684,0.3316358827858097,0.2945589776913939,0.2662857022100295,0.2724643031751736,0.3130977603751042,0.3618461397578421,0.4130877512593875,0.457323302414617,0.5126344755574408,0.5677483236083867,0.6114186041193146,0.6634430595284857,0.7190594389579017,0.7746813935202157,0.8303033480825306,0.8859251266843398,0.940577677552255,0.9560894186455328,0.912044905666769,0.8673270416718997,0.8120366973635411,0.759195536777511,0.7160618254498727,0.6613309463273964,0.6142597022459415,0.5665483226588224,0.5229982420095545,0.4765753780177415,0.4400053859386097,0.4111998799181404,0.383403942594954,0.3607603533586561,0.3511855502280037,0.3421631523044466,0.33095517521101,0.3262555117473704,0.326240801027295,0.3250382865534509,0.3115044839891667,0.2964493793699332,0.2796098492648982,0.2657405216469803,0.2619962971812879,0.2637319649353222,0.284186487829249,0.3086878024152195,0.3317836630460524,0.3564317309955713,0.3732674119372192,0.3870432840631768,0.3904887262900769,0.3916287593962839,0.4032430194733454,0.392504345952362,0.3904953184717774,0.3904930573078129,0.3904930573078129,0.3904902720723697,0.3873134374400409,0.3750020295089231,0.3747409930986989,0.3841379191390017,0.373320271377056,0.3490927808151163,0.3281434136337142,0.326713896003012,0.3420632577829252,0.3748834544396908,0.4050602549557998,0.3987735079914576,0.3905674039493423,0.3896012875418955,0.3768276538170552,0.3714345249766673,0.3531746391473862,0.318741172616634,0.2816481765104832,0.2517955350150971,0.2625215446989908,0.3025910307421822,0.3551903677675994,0.3978600335168858,0.4522886161850397,0.5078952819398777,0.5587865153185065,0.6033254224586835,0.658713082818954,0.7143350373812689,0.7696668499413946,0.814217459734131,0.8462337530646233,0.8887458749291444,0.9364372685770728,0.98318146903385,0.9968821219700534,0.9452762698552868,0.8949391683800885,0.8497986092363377,0.7944947251158214,0.7460431902186389,0.6991868693067995,0.6444124921138239,0.6012678625051104,0.5485753601672534,0.5016011992688707,0.4556020448523421,0.4165931641615983,0.3795263144858274,0.3461934475344934,0.3230455832302223,0.3104617031385071,0.3128828092690767,0.325792249127907,0.3375846707431282,0.3423315336814507,0.3471294148919002,0.3437668724602813,0.3332755677292769,0.3153832769854823,0.3022058962063925,No
1,0.1683647533874537,0.1737782312275406,0.1738130010466054,0.1729136697160536,0.1567379605477272,0.1377083639222611,0.1184574134767371,0.0988962723492203,0.0858332423775181,0.0795249040288306,0.0795122180981655,0.0795122180981624,0.0795151791915778,0.0828893696181887,0.097662203994377,0.1173324750014637,0.1621974908637442,0.2188119212073158,0.2679090088554998,0.3220141525817945,0.3745065626364421,0.4362809914995904,0.4754476583984677,0.5099736167081841,0.56925177630339,0.6321076295640187,0.6903155648442683,0.7394607172627161,0.8018493038132233,0.8600571728579611,0.9091993641829892,0.9681020045372204,1.0,0.994092264190257,0.9519053931678014,0.8898712502864585,0.8279025846359835,0.7796197309015196,0.7201266591008406,0.6572623579669661,0.5943950957396726,0.5315278335123792,0.4686605712850844,0.4057933090577914,0.3429260468304975,0.2800587846032041,0.2171915886114241,0.1547951785488752,0.1056500261304269,0.0474875949546165,0.0,0.0286437250827646,0.0670950862337953,0.0840315283261534,0.0979015666800759,0.0991973393441507,0.1137898435260136,0.1172281669121235,0.1156404516912523,0.0999886309470259,0.084179810127285,0.0796315324377561,0.0898682982103151,0.098315849143364,0.0967803392585606,0.0815993706790796,0.0795126596681838,0.0796237089256979,0.0898647127556708,0.0948739403026071,0.0803372269114324,0.0795127479821871,0.0815848049269463,0.0917165751057393,0.0799254158816937,0.0815993706790498,0.0967881627705669,0.1030387241575847,0.1167616570341749,0.1172325091989177,0.1172325754344267,0.1172325754344236,0.1172403989464605,0.1218997258935004,0.1356247967957631,0.1394698393871198,0.1540543141154615,0.1553655785917915,0.167155085517261,0.1547399128469972,0.1364310153627772,0.1205748467428375,0.1104950155755291,0.0900440381629219,0.0796215046644337,0.0772267217378797,0.0618884777752399,0.0606523043718683,0.0606524809999013,0.0627391920107904,0.0779279841023079,0.0843669713726869,0.1168616669935649,0.1622049831980545,0.2222426333208136,0.2697678674243033,0.326977647126041,0.3752582965993163,0.4372240894703894,0.4967170508785465,0.5449999046130083,0.6069686585775007,0.6698358104122728,0.7327030726395662,0.795567373773439,0.8550604455741198,0.90333061337792,0.9585272248380056,0.9828250148555724,0.963231015240842,0.9166372672922668,0.8584297735821056,0.7955739203214773,0.7361458045480438,0.6878709802671006,0.625828638539141,0.5629614646258654,0.500094202398571,0.4372269401712771,0.3745066730287925,0.3220140863461087,0.2674380904550659,0.2046180699302904,0.1417508739385087,0.0793544638759615,0.0304219202366224,0.001352656188545,0.0334816362183461,0.0583107081219509,0.0606498351685922,0.0606647253604371,0.0673857316086334,0.0913724069739325,0.0744290680509611,0.0466351927434511,0.0417645391199701,0.0352828043171675,0.0356963835984451,0.0555531301233163,0.0606374736776405,0.0606521277437672,0.0614770482430975,0.0760694861894473,0.0795558743458206,0.0878507261366943,0.0982258432513933,0.1004595493470912,0.1156405179265664,0.1172317523665436,0.1172355365277058,0.1206097269543167,0.1351945770172364,0.1382270159149397,0.1613904265591603,0.1611260505834217,0.1549656187013086,0.1549607562826835,0.1596200832297225,0.1733894347410829,0.1822633090117396,0.2041192550499224,0.2301869091255923,0.2569348369644384,0.2949765934146264,0.3244841286978852,0.3502988994868463,0.3617961615678742,0.3480748748267719,0.3330035229202854,0.3157157651744109,0.2797344229590095,0.255803009434207,0.2195142951691164,0.1938962704062201,0.1695821796113885,0.1553666003658982,0.1548059376857877,0.1444311959056623,0.1356690774046609,0.1218997258932947,0.1173597132858983,0.1322689335062516,0.162884669471409,0.2034321923329836,0.259976733341396,0.3074910975399207,0.3672501471689382,0.4155227671886941,0.4749507946481084,0.5369895509214442,0.5852643752023856,0.6446924909758192,0.7075483442364479,0.7657562795166992,0.8149014319351449,0.8772900184856529,0.9353090200769398,0.9634341158247804,0.950006604066381,0.906641315279924,0.8467623217337619,0.7984799095693882,0.7389868377687083,0.6761225366348351,0.6132552744075412,0.5503880121802465,0.4875207499529539,0.4246534877256591,0.3617862254983652,0.2989189853495779,0.2363606577863128,0.185723681519343,0.129164669326717,0.0663553321924705,0.0177994802751424,0.0431046037136551,0.0859145004971617,0.0982245565349386,0.0983724850800138,0.0992052290913827,0.1184534085301494,0.1320285011756796,0.1072268906400575,0.0858803736871354,0.0786262853731294,0.0641406817772414,0.0710110806352268,0.0798700728238825,0.0933086326131742,0.0983542455592276,0.0949769065599945,0.0886756687143783,0.097754571594907,0.0841793685568497,0.0795200416098036,0.0795121077052374,0.0786165605358526,0.0674041382084462,0.0763310641757186,0.0618883673824615,0.0606525693136661,0.0618883673824539,0.0763310641757071,0.0674041382084293,0.0786129750812056,No
2,0.8988265232096824,0.8547394243441051,0.8056290341483061,0.7565188809014902,0.7095497449193315,0.6709818866289048,0.622625611651062,0.5735221991289126,0.5283941212256491,0.4884877647880437,0.4396221891538183,0.3908644711255298,0.3511242297793284,0.3057226893055937,0.2566730284836094,0.2136010389391383,0.1952758148302331,0.2154611393314915,0.2328368338535549,0.2382717713146038,0.2383131490127072,0.2383131490127055,0.2383131490127037,0.2383261455425018,0.242553468912158,0.2645719549022498,0.292659225536791,0.3240979887390032,0.3432390060298353,0.3660161367790571,0.3672129969157223,0.3444844008322354,0.3138468977429207,0.2771701893308176,0.2414817759246514,0.2155720282345785,0.2184688922016282,0.2304692994916459,0.2382107611746491,0.2383131490126842,0.238444867390954,0.2463048775699001,0.2517213737406698,0.2517228895205416,0.2463551677599014,0.2368105783440501,0.2259556941147797,0.2227254675448038,0.2121749120548743,0.2114086389309162,0.2114086389309144,0.211025933996912,0.1985342966074514,0.1742298726803266,0.1493735295863296,0.1193893276047384,0.0904326407545363,0.0590167835760269,0.0346138075268744,0.0268258939211607,0.053316546918837,0.0819396685443196,0.112584223845308,0.1416385751623221,0.1651404359044774,0.184343451837726,0.2069759543256086,0.2223875727765296,0.2244455363854838,0.2148455256391725,0.2114486764819401,0.2185175453881318,0.2435753387250949,0.2800487840500985,0.3222523721666386,0.3606410860976781,0.4006433219692025,0.4435369114536787,0.4909160614975936,0.529273619775279,0.5773631224426814,0.6261202403148936,0.6653580110424713,0.7112600699318263,0.7603632461686356,0.8063075267668149,0.8456018328941952,0.8942196410095224,0.9367013107736568,0.9613177663862488,0.944870156167287,0.9006211135659354,0.8517433033584942,0.8112577319719056,0.766729974201791,0.717635459998498,0.6685215406139684,0.6197558306373341,0.5799812865819929,0.5346214953485999,0.4855181181167247,0.436550611444368,0.3955936715849897,0.3516043010684813,0.3025291682248214,0.2578682079801648,0.2175285079718167,0.1696454624248526,0.1581118418190072,0.1763548105005679,0.1956114487506668,0.2077889519814224,0.2113994451966783,0.2114086389308744,0.2114086389308727,0.2114086389308709,0.2116652776450411,0.2238242767001717,0.2480146950084396,0.2763102432863871,0.3155697991350443,0.3363522336402833,0.3456083912858738,0.3375700913510164,0.3121478835806064,0.279585553225401,0.2434162761778489,0.204079694494585,0.2111777799122673,0.2243883516845977,0.2251447014169021,0.2347640105931741,0.2403876318018438,0.251026599162095,0.2576303978996739,0.2598870489491589,0.2562283178263969,0.2517847462878588,0.2508826769927248,0.2402477133282747,0.2441878214100352,0.2516679425000188,0.2517654040534629,0.2514448927765071,0.2413543029827813,0.2168761673281061,0.1907704931158291,0.1660938839048196,0.133493933654166,0.0993603922622554,0.0786958350301709,0.0901526133024828,0.117894857845096,0.1456782827608442,0.1743250513319294,0.1985366370470487,0.2251482280927015,0.2407823330298977,0.2512393737948635,0.2517647456524257,0.2503470559737581,0.2368652954574237,0.2265856095544025,0.2452715702490127,0.2788826993718301,0.3159212050561626,0.3594801579747977,0.398171258555021,0.4434342868540404,0.4827969944244836,0.531172826419454,0.5705518744360965,0.6162509219192622,0.6650744939722748,0.7045941613547226,0.7501409502832486,0.7992458072463982,0.84833800342683,0.8926115227716318,0.9333174436804992,0.9793047481628944,1.0,0.9780505289719228,0.94157561852031,0.8933808900958988,0.8489669906283961,0.808392716731881,0.7594693354784741,0.7103554160939449,0.6612881796370789,0.617684306411169,0.5763412935386478,0.5273519935967013,0.4782380742121717,0.4295462897577327,0.3900890457619366,0.3443430740553821,0.2953014187259244,0.2524773138727534,0.210399146374403,0.168114002331007,0.1743557783903702,0.1985342966073409,0.2110259339967997,0.2114086389307989,0.2114086389307963,0.2114086389307945,0.2114088454879752,0.2125071176696091,0.2240886840931857,0.2486895517487197,0.279365871380552,0.3094412136018665,0.3314248331516234,0.3446342753729574,0.3381846643398032,0.3124874738854957,0.2722926789754303,0.2388364151230919,0.2084030489516131,0.2043101889275393,0.2161512024740739,0.2258961186698855,0.2368620934916698,0.2383125861442034,0.2383131490125225,0.2383131490125207,0.2383130844633987,0.2378230825214884,0.2278243617277136,0.2191557486695079,0.2115226548649511,0.2102094562501801,0.1993482390158512,0.1979572927414818,0.1976880174053201,0.1865568638664196,0.1658674032877582,0.1376921438440019,0.1071419122622008,0.070593226860443,0.0339207441323337,0.0064081643037436,0.0,0.0257617998738681,0.0519737941057694,0.0892230522805692,0.1051779457670019,0.1270009301839816,0.1555067042479416,0.1720504512219678,0.1867691938590066,0.1975278418841481,0.1979563838898617,0.1979563838898599,No
3,0.5113275136432462,0.5800120180649633,0.6566387836629728,0.7332760369450284,0.8083731180909952,0.8676460191472457,0.930995892773653,0.914392576270736,0.8635847850855192,0.8067835879511951,0.7348588848433248,0.6770993407561963,0.619492972888894,0.5574838370718589,0.5089077000124065,0.4761057746252848,0.4716099490705607,0.4715712092634536,0.4627896596885339,0.4441258708794082,0.4282941097848178,0.4138495805305227,0.3776937174383574,0.3562403510208121,0.322085883818068,0.2978345661893207,0.296782240281392,0.3058646145779078,0.3413079117015849,0.3627044106330359,0.3913595986879157,0.4144616696144654,0.4334658082869693,0.4492925719348881,0.445796095747156,0.4370886916720113,0.4339849621827261,0.425947046254949,0.4081992814160959,0.4060222211195601,0.4018633134203333,0.3883944459026556,0.4048434977966786,0.4060234568033816,0.4060234568033825,0.4060241262341653,0.4081992814161062,0.4258866343545797,0.4164737406470058,0.3739065339496878,0.3468934945274373,0.3599630553590383,0.3979225594692459,0.435393773065269,0.4621624440678484,0.4715073813313966,0.4613330485435445,0.449856976148363,0.4483861869445178,0.4233309077228422,0.3736258407985366,0.3122793118241076,0.2438226619556371,0.1697849746591377,0.1107011077317929,0.0438205848717307,0.0149414889949266,0.0342885548823268,0.094414330742965,0.1532891365830386,0.2281884861410055,0.3035569679575798,0.3630383235070087,0.4362428987377185,0.5128789399333891,0.5895164727083033,0.665535622110637,0.7264555836701017,0.797581625130789,0.8742073485919475,0.9507153032502776,0.998923560371789,0.9460216821076872,0.8853874819913901,0.8147419366602913,0.7620723389091579,0.701153037311887,0.6424685871789615,0.5799352549885737,0.5169102904886684,0.470739823686884,0.4325014627814623,0.4018938552604156,0.3839297807833457,0.3667606738281566,0.3622989724855743,0.3566760737888481,0.3401417393284038,0.3169266716591528,0.281559306606423,0.2515355212264389,0.2230172603294322,0.2102406611529015,0.2266829111022237,0.2487332123886472,0.2792565364764723,0.3139635225038604,0.3522735870674567,0.3905815332664755,0.4248592815209746,0.4555927072918422,0.4713716817635429,0.4712694899427063,0.4561396754658684,0.437247789899561,0.4280183629175149,0.4363728633359618,0.4495245908363077,0.4497532998837128,0.4556078691858727,0.4711839042623751,0.4775316125361386,0.4930523707964847,0.4939221521569918,0.5067989273742475,0.4955695030252762,0.4866917184597743,0.454961890815603,0.4182292799173606,0.4065867850276374,0.425170775484156,0.4693005671465293,0.5165585041743275,0.5421598579861073,0.5432696666454926,0.516121545096683,0.4962785529822584,0.4771903596087736,0.4581809957094123,0.4337605462733891,0.3784277937692195,0.3103941354342918,0.2470868764692566,0.1787551198000647,0.1046158951347835,0.0469296704779402,0.0,0.0067156428577215,0.0636634697155451,0.1398954840800859,0.2068832701160068,0.2715465123511356,0.3480308188476675,0.4240831781446155,0.4851787921441728,0.5560975752446891,0.6327216719155655,0.7093592988054231,0.785743913906781,0.8492637829811631,0.9174396422980666,0.9904120423511588,0.9922188358156672,0.930588771359726,0.8675570064513947,0.8083745212593265,0.7362929039975503,0.6772635545767085,0.6162010997404006,0.5523594330422203,0.4947852690165009,0.4414718400623187,0.3912029443329579,0.3583447638297312,0.3410798181809689,0.3404154002274056,0.3320982571588744,0.3133291528636417,0.2938790933607529,0.2644241419256961,0.2437208357064388,0.2079994524960788,0.1698226464547816,0.1450059183044802,0.1440682502464145,0.158802637213578,0.1846469333262539,0.2299579251103147,0.2813349512293142,0.3143312417830577,0.350699341437017,0.3800296085823276,0.4158243912929538,0.4156391975780558,0.4175227814590565,0.4217876075864772,0.3975158768457296,0.3927119657827784,0.4057974841426053,0.4060239045624461,0.4079574127453305,0.4255974135683678,0.427887198586653,0.4311474162258375,0.4484856857355539,0.4497428285298417,0.4495372073932575,0.4305762065324061,0.3970148439566827,0.3844231489545429,0.398375356399788,0.4380259178586008,0.4763423446847383,0.4910777488448494,0.4724941394316815,0.456592080760521,0.4661440130543761,0.4505495549504972,0.4441090636229892,0.4007471100021709,0.3340526324856774,0.2748155339849405,0.2014582984592641,0.1316719795828356,0.0756777928006724,0.0612582867538211,0.1046046065296844,0.1708434939880705,0.2304453050638333,0.3032844909914551,0.3798407869301221,0.446980744667973,0.5114968046723227,0.587973527355762,0.6646111542456201,0.7412487155402139,0.8173093773108175,0.8784489044203978,0.9491975473111744,0.9999999999999996,0.9589508508797722,0.8952231367779473,0.8433399932019441,0.7807293143417908,0.7231033202360515,0.6662464950284441,0.608918744540254,0.55128657916383,0.4949076372860017,0.4580861376108753,0.4497839058300945,0.4467260413325364,0.4293924423780888,0.4248144621580612,0.407512208395715,No
4,0.1834330377465112,0.177350882436412,0.181974092657799,0.1815976733150197,0.1713323434426743,0.1767140426624407,0.1754908417632106,0.1655118675400557,0.15494159170622,0.1387417646730346,0.1195722853060878,0.1176408578108008,0.1279805616566247,0.1449928963695841,0.157263526338288,0.1718992858559374,0.1824021133041866,0.1720133791971809,0.1702912631190813,0.1725087209957889,0.1915930264640728,0.2158420490860946,0.263309066222781,0.3117107216837258,0.3572215493510078,0.4052764415521679,0.451023796641711,0.5043436688571785,0.5522638299390827,0.598309878514701,0.6516923818568778,0.7040819979586885,0.7472106775847358,0.797772375050763,0.835910966117734,0.8420450004693247,0.8093165116332828,0.7668109732193731,0.7158893441163761,0.6625414515731625,0.6170181165981723,0.5685595055487411,0.5150636029677913,0.4617341366863399,0.4166090596927816,0.3677402010490436,0.3142331346583153,0.2607063870449639,0.2089731713689651,0.2014540220047616,0.2302718551215989,0.2366419868227431,0.2373811125031877,0.2476196672621249,0.2486772660708265,0.2380750643775466,0.2302091698824155,0.2288222464512119,0.2350093982191667,0.2209973853746811,0.2104744010481907,0.2101021544508827,0.2061201113185022,0.1965754334734897,0.1823565189685427,0.166366785859005,0.1629549625738655,0.1576561144448378,0.1394518165348435,0.1153619204545814,0.1018115962592283,0.0810084080899646,0.0565297959452446,0.0402179814648384,0.0249986097619761,0.028693341234435,0.0476547750102609,0.0580297961777533,0.0551989449977146,0.0509055527206827,0.0586650532255719,0.0720139708167191,0.0880404390022557,0.12416750897221,0.1540987451194166,0.1960519188787777,0.2391304754008119,0.2901845241744052,0.3354102233830991,0.3841892475043527,0.4367401678039182,0.4799385200223467,0.5314681150151257,0.5847097570075417,0.62946220164338,0.67879015681816,0.7322354098725512,0.7795532882611047,0.8180347594813853,0.8231726858309298,0.7829169612798741,0.7373724706868416,0.6891959048584959,0.6357110433314528,0.584439068561307,0.5411716183673496,0.4884040548191835,0.4348774503179542,0.3821936533453649,0.339148869595733,0.2875722431130851,0.234047016702326,0.1814801537727213,0.1385600286290076,0.0871131240622844,0.0584350130358339,0.0796302234279857,0.0926191712768464,0.0968187996017344,0.0903089613108716,0.0808714671787855,0.0702803874997077,0.0538656393643877,0.0436374193547339,0.0500525578494861,0.042063411948968,0.0249411336175047,0.0122402198262161,0.0,0.0137402866538147,0.0353931244457554,0.0355173547122014,0.0265400399423083,0.0360633534423739,0.039422077408787,0.0681775699473221,0.1104931972182567,0.1531140353458426,0.2053209778455835,0.2516633326719013,0.2987466549297908,0.3348994160569747,0.3302942642887374,0.3026260676475396,0.2716541807227579,0.245631801352586,0.2205337593157894,0.192553898682827,0.1843750149973733,0.1952902335095649,0.2078590871207919,0.2101176293962616,0.2101209953309415,0.2103546235954834,0.2183758580141277,0.2165196744152409,0.2387413674879193,0.2774049606848834,0.3175572070187984,0.3604615954378798,0.4044719884618142,0.4540055366434958,0.5075050667786112,0.5576533886808703,0.6017455522700645,0.6548171174102486,0.7083432535445322,0.7603947061417067,0.8034003113757731,0.8556476269916984,0.9075786971749776,0.9504478659820732,0.9932602966370148,1.0,0.9695755021736528,0.9242767561591464,0.8708516739964787,0.8173246526269846,0.763797631257491,0.7102706098879952,0.6567435885185011,0.6032166208160525,0.5500669634754507,0.5057638692241202,0.4559031919942997,0.4023876970470699,0.3503767590067395,0.3073075109004768,0.2550821179395481,0.2022792414527137,0.1789113910918067,0.1949533390275251,0.1980438118980187,0.208464763710662,0.2081663001887155,0.1971408176227247,0.1795425430771393,0.158223624937142,0.1637836381418447,0.1716974900452488,0.1865193898318726,0.2058196137611303,0.1989952132311945,0.1968468958970026,0.1985238175688395,0.209218586881815,0.2194912119935583,0.2330642254281834,0.2229128434121459,0.2089601235701037,0.1972622071034808,0.1907896898628478,0.180172628375415,0.1576874020625558,0.1342426118977657,0.1174430898112648,0.1045353602416434,0.1151508393630238,0.1300139497893111,0.140272222781626,0.1511943305832637,0.144061898324852,0.1440351048717283,0.1529884390974913,0.1644216720829638,0.192970103784249,0.2407959136885753,0.283485438714218,0.3261850875607881,0.3760299283524886,0.422833056581628,0.4699494234823467,0.5233937786890408,0.5753557174173416,0.618328592031419,0.670698842487528,0.7237403168906189,0.7671493614846585,0.8036613044963206,0.7990121552509062,0.7627823878700495,0.7110055373109327,0.6604328455697162,0.6167628003250463,0.5636961773269271,0.5105303629793405,0.4661836279013642,0.416382463362392,0.362880022527742,0.3129463318765495,0.2687201915318304,0.2155646444222183,0.165661184999871,0.1675148431934987,0.1829625650355,No
5,0.0257681518420609,0.0367558941797168,0.0625111650218555,0.087411282679632,0.0927531638684167,0.0819425914382345,0.0774300534875229,0.0674409682118621,0.0645310650697079,0.0457188519893012,0.0504824793184672,0.0720769500814761,0.1070555379499333,0.1482118775633121,0.1928771975047616,0.239085332934537,0.2825291761153936,0.3310671816306945,0.3791940002620584,0.4230655284611995,0.4756543466385419,0.5253784158261805,0.5679887930481287,0.6201249536995554,0.6650157809630683,0.7120706935886525,0.7636759022860411,0.8055642424570149,0.8559062006745481,0.8979783136101336,0.943948119232768,0.9631836524766886,0.9414462159909188,0.9028131179339888,0.8522501491254357,0.8105231944455618,0.7594560583320251,0.7066491130725581,0.6539170454511529,0.6075981121217584,0.5620021061458931,0.509254492545351,0.456445868466997,0.4036381958408435,0.3521189889954064,0.3103734953964756,0.2590504808292158,0.2062426903319747,0.1539339745914891,0.1116390969240868,0.0877735720282046,0.0962543626221168,0.1075084159391619,0.1040220876625883,0.0950109246006118,0.0944336641572212,0.0820252782300254,0.0560003563318773,0.0330210245834128,0.0389417106232956,0.0569911541152721,0.067549650845375,0.0783396266036784,0.0809165242058576,0.0790834915488933,0.068106392446511,0.0604298890771768,0.0533038267758056,0.0532440758800225,0.0526652940187148,0.0423758584352373,0.039580240276253,0.0479430413592449,0.0532161951753122,0.052615991377328,0.0403698842095301,0.0262924356067291,0.0122723552834003,0.0,0.0149710625873402,0.0366489836773782,0.0545119634989408,0.0719458079989658,0.0805560847328048,0.0717126646856525,0.0664785697557523,0.051761400163595,0.0398746981051405,0.0503738428097615,0.0764551444263217,0.1100265922878618,0.1528628129834062,0.1955773918056595,0.2425764127505512,0.2870404304099425,0.3393360259705344,0.3821147492454093,0.4314909076231852,0.48410883026364,0.5284824842728315,0.5760901298885654,0.62750333619908,0.6692985691036846,0.720622684884817,0.7682145664386066,0.812579546749514,0.8648806647363734,0.9077342205035048,0.9539989791991176,0.9899659766404874,1.0,0.9697194209078832,0.925503653402699,0.8746215799479402,0.8327268684319851,0.7810585169065245,0.7282503123846262,0.6761136968336809,0.633917813825688,0.5836607665899685,0.5308555535762931,0.4780469389437525,0.4253854786115614,0.3809355250820685,0.3334293497151961,0.2806523089707324,0.2278491700274973,0.1775561557098943,0.1354591555218309,0.0906303204444789,0.0905023182281747,0.0947469121810855,0.0938550319795754,0.0805024475676523,0.0672515597239762,0.0560683250084688,0.0447927063873354,0.0213290432145636,0.0277000391828341,0.053571327355661,0.0731836793148383,0.0744223575308344,0.0785635943428819,0.0712929197532221,0.0670977783827901,0.06696948998079,0.0595089961041868,0.058806370395227,0.06400571362613,0.0537122696162772,0.0532442392575265,0.0532441538953594,0.053243363675353,0.0521134880703186,0.0426885438758617,0.0498189965470934,0.0301140386041427,0.0137876919592403,0.0242990022851672,0.0389756132669423,0.0564593634876109,0.0703861105460776,0.0804909156881019,0.0809238162572953,0.0806560020303881,0.0714482634594486,0.0671059743758162,0.0707398666934526,0.0999842600873064,0.1507883457563257,0.1954094386686011,0.2426944256691481,0.2885289469574283,0.3345754721951692,0.3847564575080797,0.4269440506317932,0.4790170478095041,0.524598437513911,0.5709276856550582,0.6209061891896388,0.6632595799989351,0.7154327413853103,0.7641299341525354,0.795813828926689,0.8326191995747032,0.8758917131227935,0.9130010408343434,0.9242052440210418,0.9057872026681748,0.8590742216097085,0.8062962187330949,0.7534875946547399,0.7006790948373238,0.6485377093613476,0.6063252465847975,0.5560895174774401,0.5032843500491815,0.4505105543570775,0.4031324881983198,0.3585439156704852,0.3058897295219731,0.253081137629354,0.2005379928300197,0.1569267566574486,0.1114640721922648,0.0961488117641851,0.1068527822022087,0.1093147694756551,0.1191546122175286,0.1105349940341375,0.10847284970303,0.0961648685907001,0.0625384352625024,0.0459297713952677,0.0626733511527377,0.0883498679155572,0.1065288278472764,0.0980201623582153,0.0999704150862719,0.1084243303382286,0.1033151683533359,0.0949367683834965,0.0947637812539143,0.094763145256008,0.0937958929153199,0.0868991116903816,0.0943328378090249,0.0868897372952894,0.0809650749166497,0.0808752390929092,0.0755418300210677,0.0778444899756189,0.0721934412831335,0.0547908030049542,0.0408506626394333,0.0483214527479956,0.066129781692374,0.0937081524497625,0.111257419726058,0.1244910027453132,0.1353519839154446,0.1235758380340978,0.0969339478899051,0.0847481263483391,0.0925861314546945,0.0847380967038917,0.0915414852216951,0.1241045353112579,0.1605684464447372,0.206811116436135,0.2493602401167414,0.3010235662066431,0.3432182893555295,0.3933804908245841,0.4408804159811357,No
6,0.0,0.0073559541302055,0.0447160385603528,0.0846351798949416,0.1231016677511491,0.1654856500592734,0.1794604760609282,0.1286810732817147,0.0821340092042377,0.0473547748225513,0.0199062636143776,0.0006030149862104,0.0032671952986409,0.0259542326033463,0.0646977255317247,0.1090844735726426,0.164031322160322,0.213464137938498,0.2634147648095619,0.3205577009626341,0.3726641480094796,0.420058970208288,0.477018739815418,0.5342320508053318,0.5914441510240591,0.6469074998550113,0.692048102979097,0.7478882852705047,0.8051013200232044,0.8623027312360505,0.9156655215805912,0.961569501302372,0.9853386925986216,0.9356466224706734,0.8847360849269714,0.8362533439086093,0.7791765322027828,0.7219632274909884,0.6647499165010742,0.6075532625246547,0.5549652643723699,0.5080265686180714,0.4579192121986826,0.4114771684245628,0.3681002727775406,0.3283056357545058,0.2971633622153011,0.2685710403570263,0.2455736617327337,0.2429127898206684,0.2479102930647383,0.2656948880264442,0.2711097910700717,0.265022926334634,0.2752019717326961,0.2874219944420666,0.2959210147235973,0.3166235823381087,0.3409578225910392,0.3733873811396409,0.4024704039431652,0.4370819448449921,0.4709050954666423,0.508964605747523,0.546028878774512,0.5802167145063644,0.6158923726598404,0.6350808770099587,0.6314681898038894,0.6080490103425746,0.5792277914644659,0.539511627700203,0.5032809219004415,0.4707928321454178,0.4384270764867795,0.4126270122969973,0.3895702764437949,0.3690206507905436,0.3429206521254953,0.3341283991670152,0.3340867579161748,0.3379141986010352,0.3440098816924331,0.344177200679701,0.3489719667352977,0.338989637337733,0.3339812270653226,0.3255296193694006,0.3189380167954514,0.3158382931970296,0.307792741628913,0.321081361292292,0.3333203595428733,0.3345191163543131,0.3398263578912468,0.3443324725925021,0.3376281321598391,0.3426696293637645,0.3431225271174907,0.3285966442731771,0.305629317792969,0.2864514591808351,0.2779850315640888,0.2963590419064945,0.3294340741778567,0.3481221122937667,0.3404277219298839,0.3512609882617328,0.3572390533186529,0.3106793223022892,0.2537652643521881,0.2088692688380304,0.1857848747379296,0.2035051874862237,0.2458318292058705,0.2961176102840879,0.3429202271341078,0.3956820087917214,0.4528808458095334,0.5085683898301192,0.5536393477653099,0.6093252589331608,0.6665378324696096,0.7237503885360081,0.7797742253410451,0.8247905298973612,0.8801954338418883,0.9373962483073548,0.990405802870398,1.0,0.9481276694292702,0.892062592934185,0.8468175220267589,0.7916904659802588,0.7345306224922359,0.6845799956211729,0.6351449329047769,0.5780360338862112,0.5211984515682682,0.4752385428118391,0.4322899006418015,0.3922470294645634,0.3693702160293304,0.3503160915732803,0.338580348516579,0.3377419437129116,0.3490510087802185,0.3574267325604898,0.3508935249062013,0.3531356608751963,0.3640936590764765,0.3644693877484486,0.3644704580346913,0.3660048788622538,0.3813561008438677,0.3898759116734447,0.3800305887762971,0.3796764909268741,0.3831081746675187,0.3945716325131059,0.4048511275622615,0.4220006942209648,0.426563440828887,0.441760608788869,0.466908456150588,0.4897477552779743,0.5051768871521034,0.5268308926189009,0.5374000795343159,0.5515557562444147,0.558888211145244,0.5475391259630777,0.5452265988330547,0.5292971843314276,0.5170382766409358,0.5235852777087544,0.5298865053681143,0.5177447047923187,0.5164431330126269,0.5164422869195797,0.5164422785487575,0.5161072594412617,0.5055281922632728,0.5004040511248737,0.4829512223809162,0.4533231728333327,0.427208744813258,0.4297348525463493,0.4520877635870763,0.4684723908401405,0.4557566013972867,0.4407375663233894,0.4221767685785575,0.3767449379465204,0.3258877318530455,0.2719553902454987,0.2287739261778245,0.2003211847707553,0.2132679959526209,0.2554124502292301,0.3116367052643674,0.3688498174471957,0.4259266291530212,0.4744093701713856,0.5253316082914234,0.5825057819532735,0.6397190929431869,0.6969312843314492,0.7525067307572169,0.7976125112868555,0.8533754867276602,0.9105871513898748,0.9659147909357246,0.989173198537952,0.9446025792250952,0.8953984647696194,0.8452491607796975,0.7881180633645459,0.7328898525019079,0.6878089844850184,0.6328914799271614,0.5876820041888844,0.5330424849635271,0.4874078771085326,0.4345034579984657,0.3903245345576271,0.3493430179929784,0.316790662794177,0.2843420814675714,0.2594554017154755,0.2433825034100758,0.2338715560596296,0.2274069636275912,0.2167799224067566,0.2124875560481527,0.2074001523975708,0.199619105474484,0.2010154681311027,0.2090015041218462,0.2187946646129179,0.2181075936378778,0.2365870348261687,0.2589301408672106,0.2706053070400229,0.2590946572100203,0.2674482150009902,0.2732530008314682,0.2732857152125136,0.2732857152125154,0.2732857152125176,0.2732857549739371,0.2736497037533811,0.2842311731888287,0.2983210880810079,0.3036539952418953,No
7,0.1376203692628999,0.1442556213888726,0.150522449833129,0.1453240553652399,0.1606512613676214,0.1609636677113233,0.1609636677113193,0.1609636677113153,0.1609636677113113,0.1609636677113073,0.1609636677113037,0.1606968300607554,0.1462554659632395,0.1355938309536366,0.1164637469922609,0.1142387290182078,0.1058773419581582,0.0824607014440887,0.0821636221353308,0.0910716283542987,0.1061199978644311,0.1217637242552416,0.137297013766636,0.1376149065319873,0.140489741323492,0.1592266848333867,0.1610137616210547,0.1713057898161434,0.1949302473015115,0.222957393013468,0.2692790807423666,0.3176921143191125,0.3721732728643943,0.4275854485159227,0.4813591596641897,0.552050604928076,0.6233779087562672,0.6882078837363927,0.7430575000024557,0.8137315554193831,0.8695474258833489,0.9308040556206612,0.979868214523834,1.0,0.975082651851972,0.920931327744273,0.8666217459100265,0.7958961179140687,0.7248432501699629,0.6682037276501749,0.6052244058804579,0.5339200954118573,0.4626153639678909,0.3998149831221305,0.3431599964142418,0.2719920614168147,0.2121336910686224,0.1736189809428867,0.1087572550692859,0.0835352127870678,0.1317671441916688,0.1851008432220151,0.2074019393957233,0.2076633431659926,0.2076633431659886,0.2084355304892859,0.2261789125372582,0.2307082298939038,0.2135639571079548,0.1786289896031396,0.1531730275446339,0.1516731741283319,0.1751566256668639,0.1844305482702668,0.1992757255858652,0.2040939745379719,0.1856433758001361,0.2003218848340684,0.208094849280426,0.2241999046118343,0.2185226081880369,0.2062628175221341,0.1877904448705036,0.1843150475209767,0.1840437278723037,0.1695427715060038,0.165803718142333,0.1834732077016339,0.1843133745069951,0.1843135054385194,0.185501568416464,0.2050906149139209,0.2076592671595021,0.2041943762817353,0.1853264628776512,0.1843054669700858,0.1798019447030245,0.1617924370056926,0.159640407578923,0.135841449662617,0.1087846426356415,0.0760672468479546,0.0454654715403144,0.0216904539964661,0.0,0.0026180111016196,0.0333239679642463,0.0578171912411842,0.0815512240784595,0.092163754643014,0.1117870264950862,0.1142631775712197,0.114263992256276,0.114629059201865,0.1308983768411304,0.1570441401521938,0.1924752711489352,0.235129624152885,0.2827115688216577,0.3342172442830513,0.4041014359217492,0.4638661088486788,0.5236144159144027,0.5938348731536669,0.6464619930042366,0.7141300407400726,0.7842955697827358,0.8360639565977364,0.903285301955008,0.9548884944861936,0.9989239720791928,0.996641928866147,0.9549532653690412,0.895724270049687,0.8257235015572144,0.7725747754299315,0.7051503620606248,0.634056742224276,0.5765065656455768,0.5144688042811536,0.4431762162436437,0.372163037361326,0.3163713651722473,0.2525154181976012,0.1812001937414331,0.1104093190676707,0.0913249983826869,0.1416590753601228,0.1679102919121655,0.1862049363798972,0.2056216614536157,0.2076638887138231,0.21067072940061,0.2293367413505991,0.2295218535514194,0.2048448572262948,0.1692388660370758,0.1406378015814828,0.1495141225347414,0.1657721151812228,0.1959731571910428,0.1913633974190531,0.1843252996002227,0.1843135054383649,0.1856868465471532,0.2052264551066915,0.2041439324552052,0.1853177076005612,0.184305237581654,0.1797522973766221,0.1617840090574218,0.1609636677109467,0.1609636677109427,0.1610215431536321,0.1718406857811265,0.1823312909144756,0.163670539899587,0.1609673774375442,0.1660183058852564,0.1835863815541616,0.184313421787607,0.1842843632479014,0.1751941498934797,0.1610596671529589,0.1575195244898672,0.1385317316664083,0.1257175921821289,0.0954540700015735,0.0790248456896409,0.0622660885002521,0.032110033209892,0.0150982751416011,0.0089443928871975,0.0319324973414816,0.0441374081844494,0.057299441143745,0.0868420863582155,0.0961690989602823,0.1112340162303433,0.093533132929247,0.1116609594503135,0.1208015988638044,0.1375068668403365,0.1605819349091763,0.1942297653699074,0.2400935697304866,0.2954471299975894,0.3494044673277399,0.3984990964647279,0.4497235528229906,0.5188159208515968,0.5726080531280653,0.6387952622056332,0.6981275363212429,0.758200321984825,0.8165171335293353,0.8709887357940165,0.8982716378220843,0.8877716074577382,0.8321470789825662,0.7609211694915965,0.6932284127867723,0.6406217389608564,0.57040418940222,0.5106244804723925,0.4508919187209326,0.3796280304285053,0.3085104845392701,0.2504892799990617,0.1889385326373793,0.1176520079262939,0.0467186320861587,0.0185344894974375,0.0691533212583825,0.1245823058358746,0.1578321883658593,0.1609622815025964,0.160961593337745,0.1577432866086527,0.1406073687526188,0.1587914007839175,0.160835548623774,0.1481293953297155,0.1053114929636462,0.0721932137905989,0.0850426046535144,0.1013826729750713,0.1140794722447178,0.1142639922559984,0.1151499981795138,0.1334249768685542,0.1372742967852813,0.1214270327205273,0.1142761906395963,0.1142639922559771,No
8,0.9133535343029702,0.9264077016699636,0.8868418149551944,0.8347467870359409,0.7691461513465465,0.7030020824219125,0.6417253500552142,0.5890434206867496,0.5232976451875926,0.4571444554130042,0.3909912656384171,0.3248380758638287,0.2586848860892403,0.1925330783235548,0.1284864456152354,0.0787324833423759,0.0488720403771729,0.0504377976820458,0.069867511269587,0.0917874249261636,0.0973411114339057,0.0750296611744172,0.0478712734917188,0.025520439688893,0.0,0.0161600558883341,0.029012786455675,0.0291885627566537,0.034633817099853,0.0458482541137335,0.0421687145185694,0.0478150977829607,0.039893143727411,0.0305042549426088,0.045271874654313,0.0479554946174474,0.0544998846722735,0.0664062562673448,0.0667008236621207,0.0667022376997859,0.0695330152358115,0.0893945594178906,0.1173431019616693,0.1484932878034941,0.1613132556025984,0.1752383606799719,0.1640292642544571,0.1468238248589952,0.1249016421980995,0.1059615898185857,0.1037848034233945,0.0906268016546953,0.0745769343551039,0.0667364389749742,0.0708794609954903,0.0837368027297147,0.0696264330120319,0.0667022889860553,0.0669749580731422,0.0869639708594869,0.1305405233801568,0.1820296172660493,0.2473689633850351,0.3009249169657386,0.3611798262592542,0.4194372974751199,0.4748775202261166,0.540883654042092,0.6052961389459144,0.6562209709229068,0.7205802947130304,0.7867330393954499,0.852422991890851,0.9049771590340544,0.9640391634998452,1.0,0.9908543005755326,0.9335861011258252,0.8824757437049304,0.8177120354545147,0.7515592632972696,0.6854145844147199,0.6238465895316545,0.5713672158314647,0.5057107571383148,0.4395575673637273,0.3734045900611207,0.3079714660347532,0.2562355481336045,0.1945521666696597,0.1516293319879542,0.1084305420079254,0.1003502156836573,0.1047400341939757,0.122708132836061,0.1412184307939545,0.1507307668410544,0.1420214052432618,0.111204373837054,0.0857852473469837,0.0776742004528414,0.0981167604564157,0.1042051506497045,0.1042293295407725,0.1042293295407668,0.1042291243954003,0.1035187818537068,0.0891516910564393,0.0854669155829825,0.085465076601344,0.0854690701385649,0.0894647099371312,0.1025763102685495,0.0885920606402583,0.0919642689110102,0.1052405079940808,0.123209524707299,0.1515732381532011,0.1803460232696734,0.2165025366538517,0.234995639057419,0.2280488628375176,0.2008370434204134,0.1785991660629382,0.1513087366342533,0.1260408573110676,0.1053196578124997,0.1042191412643704,0.0988329744528333,0.0857739754860285,0.0854650766012636,0.0854650766012583,0.0854662488604622,0.087872452811756,0.1134542410909009,0.1484866668376891,0.1932236494995476,0.2430249192249638,0.2980790436042939,0.350694116995407,0.4160299003909378,0.4696371635921319,0.5297671411892506,0.5828099108161089,0.625526471994005,0.682652978024787,0.7382885881010774,0.8043199274443409,0.8704260779141428,0.9226420690106664,0.9206492233484194,0.8762044971457605,0.8109667838434271,0.7508242413030981,0.6971314620677473,0.6318267686796792,0.5861101956537973,0.5362019678348178,0.4703195132504101,0.4067058775180108,0.3555125922803648,0.2906206596335758,0.2244719982730676,0.1610841000641962,0.1121347766960285,0.0968637652569652,0.1043622039006417,0.1214941948259196,0.1550032272739865,0.1603555257131117,0.1475132697539805,0.1208909626742036,0.0916769081098962,0.0747499358550891,0.0854023395402987,0.0976654845556161,0.1041949578102769,0.1070208141081834,0.1218168710898908,0.1214950404855783,0.0995360378654779,0.0768250323886876,0.0821100393310301,0.0806764183772714,0.077978412781102,0.0802242732566034,0.0669088212355464,0.0572049265489686,0.0639028538371957,0.0678472220612822,0.0849627758528801,0.1132068362731844,0.1509481283856435,0.1617709668536799,0.1765545756878843,0.1669992467304792,0.1460745001444512,0.1272903989371872,0.1055558863043057,0.101643275839371,0.0863627491714149,0.0728904071580482,0.0663538977544222,0.0538717321824617,0.056102638238769,0.0665814058636358,0.0667190688694105,0.0725204938465822,0.0979157966162209,0.1420068451561418,0.1918087331926146,0.2469050418189993,0.3009474040338298,0.3666922404892707,0.4233580358618294,0.4804111632139753,0.5464506453048874,0.605428989653118,0.6602431641043194,0.7261716881069171,0.7907625721709146,0.8417872937332649,0.9055349703191689,0.9457387934159428,0.931835050444441,0.8790548575031898,0.8161379541094393,0.764721997667694,0.6995344522060862,0.6333812624314983,0.5672297596447682,0.5032521633553433,0.4521899831984814,0.3875321994494198,0.3213795664979559,0.2552263767233662,0.1890731869487791,0.1229286548212886,0.0632079301232586,0.0583658878215791,0.0674933513413207,0.0836885359304191,0.1022288351000413,0.1041202733506838,0.0921119307689801,0.0653539423421381,0.0331046409845807,0.0280659657953914,0.0514841040958278,0.0660364447206856,0.0661944468268322,0.0528833609086629,0.0522992635665624,0.0621627517560749,0.0486355193008209,No
9,0.0,0.0042239803290013,0.0286789499975697,0.0621493773992867,0.0922086393727403,0.1239218556676255,0.1573167221922746,0.1773423327571122,0.1912013394024292,0.2228708250446121,0.2391178943930509,0.2393027825105225,0.2383151975047535,0.2131436885230946,0.1686056656232997,0.1236473895118037,0.078690195396851,0.0352546175376562,0.0133236809405807,0.0058113098147993,0.0397848345471789,0.0771211893125838,0.1042576868932294,0.1480566798514277,0.1929936523415922,0.232083827606139,0.2435631100728139,0.2531220964401464,0.2821833964668547,0.301279430488401,0.3187757357191425,0.3285327046115074,0.3324143984624408,0.3367148553205026,0.3371475722252315,0.3324296582639001,0.3324011649577634,0.3324011649577651,0.3322899130922061,0.3243273098257684,0.3190596802161956,0.3111355268975182,0.2966952588457294,0.3064655888628635,0.3178323755500001,0.3191010609079865,0.3191015143974591,0.3196237054462409,0.3297479265168093,0.3251264573645134,0.3191588011298805,0.3230216725312829,0.3320486238579625,0.3232427857607014,0.3235184659129833,0.3322529696637524,0.3324011649577891,0.3324011649577909,0.3323974258739675,0.3295965650858434,0.3156640316365102,0.3054816598372531,0.2880104596603852,0.2707384907406895,0.2671800961118475,0.2833654823865195,0.3101049163864688,0.3274682176517922,0.3194997613835957,0.3191014979350219,0.3191014241111554,0.3187133398205315,0.3022317663681679,0.2764558511628485,0.2427011788502326,0.2164716602541174,0.2213618814282401,0.2605210782838991,0.2947609019387287,0.3382690958701531,0.3831922975208872,0.4228646717013182,0.4599510566099076,0.5048023154229178,0.5497606550692402,0.5947189947155627,0.6396285399191335,0.6781311204009448,0.7163584515952235,0.7612526124542045,0.8062109521005274,0.8511692917468503,0.8961276313931728,0.9410837608044172,0.9841405938351144,1.0,0.964010721901806,0.9193213472537848,0.8836971990576648,0.8424479499671449,0.7975009257421326,0.7525508601438196,0.7113520109252982,0.6756416612967997,0.6309672753357876,0.5862932062973822,0.5507765147052761,0.5093947238770071,0.469370893317047,0.4326032885827153,0.3917509897480973,0.3564303044150962,0.3227804043102007,0.2960729320606328,0.277731056121056,0.2664068355479614,0.2607844817269167,0.2527675536903122,0.2526027198779217,0.2526024801432744,0.2516787534142346,0.2408926472533932,0.2393045849750623,0.2393024656081452,0.2372558904010606,0.2283408920423961,0.2406615581078459,0.2522208171599889,0.2619824245942181,0.2769186811006481,0.2918265217863309,0.3036190668471321,0.2938394613862969,0.2970759391983417,0.3056232733028925,0.2997607946394831,0.2976362019398135,0.305623273302896,0.2991380347286783,0.2925522984865436,0.2925019424178998,0.2925019424179012,0.2926308869108296,0.3002725560465271,0.305623400115333,0.2975738535109129,0.3031809861294037,0.2942650508937978,0.2972276170632395,0.3173875433373743,0.3173514899369438,0.3068103512975386,0.3100572424522667,0.3065101705144237,0.2967724957355178,0.3072622190488685,0.3125191449696527,0.3108997562751399,0.3171136355595334,0.3067106860512032,0.3045849916817249,0.2914385467496112,0.2726951014707151,0.2666707406037982,0.2821503974720376,0.3099621844686364,0.3274158793768587,0.3169246126627811,0.3084278501919404,0.3184618501151006,0.3189579206011967,0.3099242747234387,0.2922519625786939,0.2633782276197363,0.2334527753610058,0.2140026875431044,0.2316053321857318,0.271792873142572,0.3073874629106448,0.3520899602122549,0.3967528657066537,0.4323892724307447,0.473673150457734,0.5186236147342167,0.5635819304585206,0.608280712411085,0.6442316435663327,0.6842004715722747,0.7119476523809287,0.7485238500980107,0.7922343050836811,0.8192468417708989,0.8567917679820991,0.9003824735994335,0.9338281933839035,0.94149522778782,0.909514871313316,0.8653555675177769,0.8204043206809888,0.778929127834949,0.7434590926457778,0.6988220182012568,0.6538814261692636,0.6144180698321557,0.5771164060866907,0.5323275990999314,0.4934347159056678,0.4556051691136558,0.4158149584410973,0.3796811301436933,0.346858354918147,0.3150796394410373,0.2860090923169736,0.2788863701299622,0.2691965361566164,0.2659075296423845,0.2659239267142665,0.2703057850769319,0.2747750926044086,0.2661405087487529,0.2657560692211063,0.2570424238636146,0.2518818662253927,0.2411917524873952,0.2395061978724051,0.249466057859061,0.2675302015402154,0.2864434556134734,0.3016481699577746,0.3087266220513709,0.3186466811555539,0.3196119759201488,0.3298080284233688,0.3323979416239417,0.3307806382453693,0.321436234666888,0.3310690115916439,0.3232492060761323,0.3206206828115459,0.3311645418081816,0.3229991383286852,0.3280499783419874,0.3320037738631964,0.3225714676872031,0.328626500561159,0.3323928410751535,0.3324007626564427,0.3309299349165688,0.3214362346669039,0.3309280569849711,0.3235933982761461,0.3272372707505568,0.3311836154081384,0.3203743951251789,0.319102253109131,No
10,0.1358330373303191,0.1105706132281865,0.0887971702555696,0.0835603712578534,0.0855405892064693,0.093986901193021,0.1071416290804976,0.1266747469454747,0.1347091528015951,0.1215230202418673,0.0968884240394631,0.0728948342063704,0.0721062305222781,0.0842816603270519,0.0813512378924985,0.0859314070868526,0.0860195148489175,0.0827312605027623,0.077338926868455,0.0844227787265661,0.0761558684406376,0.0667380696050332,0.0662641986893433,0.0722583846985329,0.0855024649933142,0.0988128822545093,0.1058695265316922,0.1121086855067725,0.1131596686205393,0.1061770354757791,0.1054803246249587,0.0948306168207233,0.0752912697008068,0.059118768758261,0.0395665948135057,0.0195446223088409,0.007270917723726,0.0079313867995698,0.021660554299127,0.0347303922675883,0.044404836454952,0.0498644014393245,0.0597816042070975,0.0678441108316743,0.0781944891505863,0.0988299519589479,0.1217387807787855,0.1560363529961808,0.1867166801109656,0.219467548224465,0.2583652529389224,0.2908526528664987,0.3301270308966728,0.3704377106588921,0.4076691718188798,0.4413497343097918,0.4814869395839558,0.5218083211357101,0.5621064159837288,0.5986192152113139,0.6329800525387412,0.6730820360829033,0.7060982214042766,0.7344549931409299,0.7733576999185021,0.8058866375427041,0.8450034718527539,0.8853227734019531,0.9244781475670508,0.9569107633508532,0.9914711611204274,0.9920336474905986,0.9569251169044836,0.9166220926866782,0.8786741670926865,0.8455707213391794,0.8055758818440508,0.765254500292297,0.7249332208374444,0.6850424902525099,0.6520055437693735,0.6138887166399583,0.5735722569116106,0.5332508753598568,0.4929549146258241,0.456498706999759,0.4221061612015269,0.3818900135309249,0.3415686319791708,0.3012947097871992,0.2655562060676673,0.2307656027862847,0.1977910769777251,0.1684443425102,0.1483838071020025,0.1500732467693208,0.1578318433905046,0.1678755302221135,0.1851993985429143,0.2049948809327597,0.2103879219951154,0.1923819615828013,0.1708445941816803,0.1494277052483912,0.1529264155214358,0.1647712510286265,0.1654348332620543,0.1654350294574835,0.1654350294574829,0.1654349405343742,0.165031302638239,0.1564801933639845,0.1463973776503147,0.1422251516942032,0.1342567933363092,0.1274990726419735,0.1350568062628836,0.1433078151066786,0.1455802444712386,0.1455857007013068,0.1453789215516534,0.138678406850242,0.134455976112334,0.1186237868388808,0.1008035543846113,0.0787745354966462,0.0556274524832494,0.0354219261045469,0.0152808596647182,0.0,0.0085051900294483,0.0239634643249699,0.0351813996836878,0.0454825395559688,0.049476268278177,0.0574528692631417,0.0659880172738749,0.0748251592028865,0.0886204411758353,0.1099912894156744,0.138236482746707,0.1705664499516501,0.2067210905002221,0.2392675034570799,0.278240350162833,0.3160160459567314,0.3492997119095149,0.3892849203104773,0.4296062430506517,0.4699176346132951,0.5071048274748113,0.5408198050582786,0.580967104879583,0.6212884864313377,0.6616098679830915,0.7017669163113798,0.7358152138022129,0.7726697779310774,0.8129707298120219,0.8530473024401388,0.886626836278344,0.924023843304636,0.9642704560063504,0.997842559188666,1.0,0.9723082118855726,0.9380003947637564,0.8977779599290789,0.8574565957855516,0.8173810172996938,0.783861358810725,0.7464085561583804,0.706095716548393,0.6657743349966387,0.6254547488304367,0.5864954582405111,0.5539248450653411,0.5144131250031565,0.474092091615953,0.4337707100641996,0.3935991032699537,0.35952299251196,0.3227165446188909,0.2824139239353394,0.2442541249337524,0.2115823691173184,0.1794475440536569,0.1560654938489718,0.1458914942338893,0.1463622919071014,0.1549806102382573,0.1697824576699664,0.1908339395720382,0.1887767654627303,0.1696265567585502,0.1478029275183503,0.1284263704989554,0.1388987810813935,0.1455434910964501,0.1455857007012964,0.1455857007012957,0.1455857007012955,0.145585700701295,0.1455857007012946,0.1455071510272849,0.1404175507659042,0.1344181351850946,0.1266052378502948,0.1281990292874524,0.1363204236458528,0.1445071000942595,0.1455846660521691,0.1455825740269858,0.1437224416273461,0.1360995168048446,0.1334250181817411,0.1168716212157319,0.0967212886737201,0.0765080471357229,0.0533361240462111,0.032503573132163,0.0288667537087867,0.0429386972142631,0.0558062722776047,0.0730727080632069,0.0832586742667134,0.0871103132207979,0.0953007885434356,0.1035326021505376,0.107220728182781,0.1221243476129367,0.1445854652025184,0.1744194380343906,0.2064469905193029,0.2432071491763348,0.275919323996227,0.3156868226472127,0.3560080456429475,0.3963294271947026,0.4366508087464564,0.4769651768508627,0.5146983453935254,0.5480141921466988,0.5880117237410549,0.6283330521271422,0.6686544336788955,0.7088962023421486,0.7434948374996915,0.7797222020284047,0.8200152955078268,0.8601849181642667,0.894306459975823,0.9310717880374676,0.9692028347509568,0.9943138148694476,No
11,0.0525512122382338,0.066457094975338,0.08942040866647,0.1080654678449821,0.1219101828798665,0.1294292425659886,0.1385185219435594,0.1600776253100333,0.1535092072455368,0.1472652662540929,0.1630796834937493,0.1902233032094238,0.2290840960325071,0.2715862667529034,0.323564899901346,0.3800332910890689,0.436512840175534,0.4926138948193728,0.5372427471094654,0.5893858704087767,0.6432605379042338,0.6867451760245471,0.742189357206331,0.7909378515159675,0.8371016549800219,0.8579779364002542,0.8452444696026178,0.8018801923757017,0.7506121602534117,0.7054385421467693,0.6505451607790387,0.6073732580494031,0.5527860301016712,0.4963070693579818,0.4398376293760453,0.3877912414281121,0.3430904982762648,0.2869622734920387,0.2304827244055736,0.1740195272527525,0.1279695607041322,0.1483970393815545,0.1775496765555235,0.1917676843199074,0.1833909844180361,0.1792775521886778,0.1902413816883403,0.2172066304542137,0.2326990991400261,0.2448122341461718,0.2339959544316818,0.2070138098077278,0.1958486152693539,0.1957110802614199,0.195711080261419,0.1958575032560454,0.205200102456601,0.1989038368343223,0.1957097273459336,0.1922316640665311,0.1879845513652847,0.1956334405691997,0.1911801151675565,0.1732662700068066,0.1651337610927874,0.177999775988451,0.171872650142999,0.1658460761428877,0.178468818813295,0.1752555578127506,0.1626408959346199,0.1501927681141253,0.140831773452962,0.1155201578358267,0.0872862694385725,0.0594993361947331,0.0467308286131165,0.0465625696523437,0.0528222866578427,0.0778246878649233,0.0887739915296901,0.1022811041890405,0.1207138092203421,0.1296322979110939,0.1412999560732215,0.1459768367388094,0.1459966265887224,0.1498605894804323,0.1780120434288332,0.2187754143373546,0.2737684941518337,0.3277971501471644,0.3712168809222422,0.4265885136568337,0.4755518556972631,0.5231158741845277,0.5794987586091627,0.6348755579612155,0.6778309954907256,0.7193849150125629,0.7562850018761256,0.8094600262608505,0.8529970163831861,0.9064042123975034,0.9368291058513094,0.9264557634150838,0.8900223709789286,0.8413703402157684,0.7928162783152737,0.7448857586154225,0.6885973295249754,0.6411070066474145,0.5920655317552161,0.5356283317041379,0.4795514080520626,0.4348385039241043,0.3827535787179754,0.3262834785521886,0.2698039294657226,0.2133291333912685,0.1627303543206353,0.1645425438070291,0.178517797010079,0.1791375551456906,0.1793126618192211,0.1902848421506844,0.2114867415879944,0.2283066716386588,0.227511268280335,0.2079621646418923,0.1833189268858635,0.1800941011003063,0.193347897985721,0.1915053716518637,0.1882322019229607,0.1829556065874875,0.1792979921915045,0.1894021456619183,0.1953689035851677,0.1844432175816259,0.1754505869618121,0.1631193796566772,0.1625642793015274,0.1625744265530704,0.1671010336424547,0.1775653638128989,0.1648034314361117,0.1681389351151434,0.1785198069722984,0.1673986313847049,0.1537153045825974,0.1333063242892769,0.1129090124144838,0.0842079012778973,0.0560929331616324,0.0334536300384153,0.0295169950467646,0.0178611798491004,0.0270276595307747,0.049240489393235,0.0658327099087383,0.0881459403156306,0.098527109250126,0.1153867940175508,0.1289167682155905,0.132479507633958,0.145268709619168,0.1485104331741538,0.1712063500693479,0.2061715125829017,0.2504717477328606,0.2935870739040389,0.34678244290075,0.3907487386092754,0.4437965184854526,0.4993860163310595,0.5426729058683986,0.5966607378232998,0.6531363018127223,0.7075375610142878,0.7507920730924029,0.8060023730462214,0.8623762517720244,0.9098584913065428,0.9584124861032396,0.997872898832127,1.0,0.9630000238878096,0.9182492322008232,0.8671477785041111,0.8106817286573489,0.754202179570882,0.6977227311219969,0.6417497204289697,0.597676908381354,0.5448518454371123,0.4883778346184741,0.4319403828600308,0.3818762470655019,0.3353660394344611,0.279033038752531,0.2225534896660663,0.1661337566718064,0.1253982234147717,0.1515181558098062,0.1757535944230133,0.1791381307532424,0.1826382652505431,0.1952078703413713,0.2028736476898847,0.2225079721134104,0.2434120311534369,0.2398021046869458,0.2142907074334141,0.2034955331471639,0.2009127770740928,0.1921194263929653,0.1891456728009406,0.2098789112010219,0.2029454015430825,0.1957438941329603,0.195711013685691,0.1952861211886465,0.1833823136414936,0.1791462907050376,0.1791376797813981,0.1791376797813972,0.1790798505401811,0.1715049760639906,0.1635877529344163,0.1814508297978512,0.1865701702643627,0.1791313328151162,0.1712811167631294,0.1571569994218382,0.1316037802878149,0.1122657351747213,0.0915639554780343,0.0633658201356355,0.0351265756875691,0.0076128824408199,0.0,0.0128736609465733,0.0252201067175166,0.0439577041296139,0.062770331644927,0.0866268954353746,0.1102756948442147,0.1268013528767366,0.1445351557114227,0.1336738572028042,0.137149608891042,0.1461253996877558,0.1583246855600242,0.1842030939867851,No
12,0.2950534912893316,0.3145871982002814,0.3293468120320679,0.3246581648606641,0.3075280215174696,0.2781752440640694,0.2428928349579999,0.21297169039808,0.2151669997962613,0.2301158380677788,0.2339110472327088,0.2339213634535157,0.2339213634535126,0.2339213634535104,0.2339262440399423,0.2370343218122075,0.2417955462208358,0.2428890438657025,0.2355358120123596,0.2355703299348741,0.2454588211155512,0.2352571923876745,0.2391756245627618,0.2433395948316232,0.2340849422077964,0.2337159277868949,0.2258406187444173,0.2296652378843706,0.2203402028094245,0.2087174307375696,0.1927698369073724,0.1837559099894643,0.1821559784896007,0.2003878881689957,0.1939345152859677,0.1963798306824267,0.208225641391639,0.2268610235635377,0.2338766293874949,0.2339213634534611,0.2339178501513599,0.2306916854203482,0.2104413148648856,0.190499247447947,0.1631099903931505,0.1318683094727668,0.1023976121206047,0.0735991793800909,0.0440141952784616,0.0240140843440679,0.0,0.0085986428037458,0.0261581446412355,0.0493244679851088,0.0624498324804161,0.0796746501381444,0.0992933589592945,0.1133750787500704,0.1323981624318722,0.1399361461340782,0.1518437983963845,0.1700919277655281,0.1821525054962216,0.1941002286562048,0.2126244263523542,0.2260861231789728,0.2553806718035916,0.2877739379152282,0.3323921885432805,0.3765546029936053,0.4129685810574983,0.4595628390550752,0.5065981915382962,0.549264933875925,0.5869900455577062,0.633777651341382,0.6807785303471658,0.7213813911660618,0.7610254495029305,0.8079318267142441,0.8480828869026986,0.8881692514834088,0.9346057549643004,0.9708774885013888,0.9997252656384844,0.9900416672578524,0.9574930641012124,0.9120365067137964,0.8731699203666947,0.8317471250703301,0.7849071941587717,0.7464684246300552,0.7045803322362758,0.6587086537834166,0.6228851358369472,0.5774216450297813,0.5304096437980625,0.4886929422152426,0.4501319620401971,0.4032071763248335,0.356162041010517,0.3091169056962011,0.2620747549883089,0.2175691932601764,0.1817132708177848,0.1645936610371632,0.2064023428409602,0.2423397070670181,0.261525870921873,0.2715560492114641,0.2790104119568135,0.2908215747696574,0.3086287648954027,0.3252826273081299,0.3315033352131329,0.3219519766983372,0.29332321717775,0.2654511284192904,0.2234558862814215,0.210362061855613,0.2220773270994036,0.2439814471249501,0.2613192565135924,0.2540520420118861,0.2558425713409971,0.2618116398195065,0.2619639169056609,0.2702468606362118,0.2757826642117611,0.2758183698741527,0.2758183698741501,0.2758248904925491,0.279352647149298,0.2942045819463303,0.2940586696320708,0.2770960112920027,0.2748896410684915,0.2638611042233556,0.2618528465904486,0.2605435866992551,0.2404740122233475,0.2276503891291934,0.2200491612622874,0.2236358578193371,0.2340094020243261,0.2446990293641286,0.2562920154899926,0.2639938949042197,0.2749911404660783,0.2802757203637549,0.2895043901347716,0.2843846829280583,0.265205611427513,0.2523214929186523,0.2278582648641527,0.2026586268603689,0.1700631590359851,0.1382261144407568,0.103105714325594,0.0754780456397088,0.0470379417692501,0.0266623148268814,0.0146164597762918,0.0390599298364491,0.0637182911436449,0.0878673458603938,0.1073139485938798,0.1225304087254111,0.1360443934141737,0.1462872261423489,0.153672859018664,0.1687338359862362,0.1845262863920216,0.2001575650552971,0.2079988331224509,0.2222720012168215,0.2464032446680564,0.2680915262198473,0.2989127206629223,0.3404910832207068,0.378517139214753,0.424311067837551,0.4599792064973522,0.5054505483906686,0.5484790077291235,0.5858710790823358,0.6326275478811958,0.679641203710021,0.7205954650192603,0.7599064830275606,0.8068423885092355,0.8538795122669982,0.8970729781107942,0.9343154239285472,0.9778180743753238,1.0,0.9896227570847912,0.9461127156992646,0.8997728462157735,0.8635675652623487,0.8189941067897366,0.7787036435231678,0.7387533836149096,0.6917764149541328,0.645764375336479,0.6098339637480628,0.5646060637716288,0.5178011109373553,0.479885690496391,0.4374264590721162,0.3904255418868025,0.3487917882416047,0.3101503657670599,0.2635935387500407,0.2407568610727324,0.2662732355205262,0.2841646113118941,0.3023192300914692,0.3140912813008261,0.3178743866556024,0.3327783336494594,0.3591317252998069,0.3710216727415392,0.3528660877888354,0.3348200104184711,0.3051912027555761,0.2700385884598337,0.244493788028643,0.243665728066968,0.2612382741568839,0.2792135259637134,0.2894789409938108,0.2897445269815768,0.2838844776647238,0.2782966188265505,0.2886958679926863,0.2792740318095719,0.2758245923047933,0.2758148994391378,0.2727990486895115,0.2623463616622974,0.2618526980837452,0.2616264229482827,0.2481977862415023,0.2315195656385968,0.212821256842258,0.2042367449771234,0.19291355853042,0.1927621233990195,0.2039090556560872,0.211468329045362,0.2206292907670883,0.2333835271445852,0.2465880342883535,0.2478862338817711,No
13,0.3553898703673228,0.3224018991058939,0.3220178390542205,0.3542414260053643,0.3610044376807222,0.361116056259136,0.3835214305408936,0.413989114487423,0.44164858202664,0.4419094155633027,0.4419094155633054,0.4416087622342086,0.4129376944452625,0.410997606565755,0.4322582028649169,0.4025199335232878,0.4014577413901712,0.4014577413901721,0.4010822268512992,0.3703763386462562,0.3611127793491908,0.3800365482874017,0.4013466302730757,0.4019686580495634,0.4273237843905484,0.4138919563534458,0.4015644535223401,0.4153463039697254,0.4643076481643327,0.4823248398291468,0.482359742370968,0.4761454663780702,0.443539588487571,0.4419096501178012,0.4401408368161927,0.4076719275656382,0.4014703495139073,0.4100278785297275,0.441496058325443,0.4253750517710264,0.4017264309474901,0.4014577413902032,0.4011156754769764,0.3713098286509266,0.3610312413847829,0.3497396037938491,0.3164167337906223,0.2725992147776699,0.2407485109911746,0.2535683771640737,0.2875279870529299,0.3344674588382688,0.4030384296984106,0.4340893333094016,0.4029489483380848,0.3795029507509992,0.3656377931353267,0.408325100305678,0.4319591471998549,0.4024865228885694,0.4014453833583609,0.3845718281256651,0.3287808987778131,0.2666501371259988,0.2401844329496958,0.259755619325424,0.3206455677304403,0.4002741592501238,0.4671450696458148,0.5359325379849107,0.6261842036172327,0.6939765296515965,0.7572863572835065,0.6954591247078135,0.6306292285627357,0.5978235269896404,0.549099342870635,0.4823063765127919,0.4321153666211996,0.3819258088001795,0.3598523196905683,0.3276131654140712,0.3199396247544914,0.2881838850555365,0.2802094310029748,0.3013478989495368,0.3224036362058813,0.3557237742092116,0.3610024695395788,0.3494350816720679,0.3228959464362182,0.354460588727771,0.3565457843211046,0.3220760439765593,0.2879379931978061,0.2544359055455931,0.2610348480983484,0.2736590627902755,0.2386653395150908,0.1983729625531003,0.1488730336549641,0.1191710351596615,0.1343628623590618,0.1674113149275351,0.1988095504391518,0.207066358496097,0.2519418322988125,0.3012537594770776,0.3204926584695018,0.3213242421228521,0.3490531059033612,0.3610024695396046,0.3558610286725523,0.3225103196572565,0.3205547651567189,0.3205543930439951,0.3205543930439978,0.3205543930439987,0.3205543930439996,0.3206456001806383,0.3402720844861555,0.3609092912253198,0.3610060672171471,0.3610060672171489,0.3610211607879909,0.3699318195965437,0.4010662989344462,0.4014577413902964,0.4014577413902991,0.4014577413903009,0.4014577413903017,0.4022442957865539,0.4297909936278596,0.412425509070931,0.4014917604964259,0.401457741390308,0.4014577413903097,0.4014577413903115,0.4014577413903124,0.4014577413903151,0.401457741390316,0.4014577413903168,0.4013215744432612,0.3730296353690567,0.3104469013496711,0.2909074223122907,0.3099442787758182,0.2620105439441786,0.2397577568299143,0.2476974859879481,0.2925817250946023,0.328279505223171,0.39026449762002,0.4014905751559956,0.4125616371138818,0.4415960199007971,0.4419094155634759,0.4423284529772378,0.4672011466878674,0.4815496945551221,0.4456854761961626,0.3968993151897546,0.3623447965065658,0.363071663087954,0.4172380000823086,0.4819311831090926,0.5463805980413499,0.6399644523408821,0.7353217402188523,0.8012901286422629,0.8945021936790374,0.958818650245142,1.0,0.9340172154212194,0.883546078955546,0.8005707550221821,0.7239923291588468,0.6443897187061784,0.5831637076593772,0.5242251114471355,0.4638053460984697,0.4143644068732497,0.3839801699555645,0.3539348658245878,0.3218755175966699,0.3205552924634531,0.3266352235045655,0.3591522788128731,0.3487476790715451,0.3212908314881693,0.3190323009350493,0.2820111479292331,0.2408513013627118,0.2068364462064273,0.199199012699216,0.1833985789506407,0.1713924614109716,0.1846950641496709,0.1363353437246903,0.1161949558622179,0.0831006590270222,0.0475706776628452,0.0035523699236721,0.0,0.0349048014125585,0.0722899794043554,0.1211375563062091,0.1595886918235409,0.1950640603431628,0.2283845812745939,0.2403012829867767,0.2670807636455308,0.2800284294816872,0.2605904434675832,0.2397488346293359,0.2396491329907428,0.2323373856329329,0.2004954371012033,0.1991994639937582,0.1991993705246866,0.1991964712198557,0.1867119122550873,0.1594590768195614,0.1592170031478339,0.1859361920761015,0.23595708071268,0.284741782377873,0.3201807551318207,0.3427918558494802,0.3610571747348894,0.3814876449448805,0.4032082584017686,0.4422587131510083,0.5092091877662623,0.561287146220927,0.6007778431627351,0.6189288337611023,0.6452313390103477,0.677200383926996,0.7069296824382167,0.7182913233824539,0.6859415948936425,0.6613658740471218,0.644923386384713,0.6718265755009156,0.6851025240313682,0.7119773821145783,0.7619634245111282,0.8036277068632591,0.8389782346975272,0.8462366240351731,0.8213365760825218,0.7915695063747537,0.7660170202907066,0.7655228089487105,No
14,0.1503179381876578,0.1449663249823167,0.1322140680861028,0.1147272509191557,0.0931839965880361,0.0683935673918845,0.0444504553448683,0.0163065332827938,0.0069660192923917,0.0205943109224076,0.0418243896953378,0.0610745261005094,0.0828714527199094,0.1002047443268139,0.1087700919290808,0.1180893768029909,0.1274976248856021,0.1396755510220408,0.160141365954417,0.1872862725697712,0.2157630290358894,0.2486103702358899,0.2800260070780827,0.3072564927428121,0.3344389617438581,0.3696301513286939,0.4071777824435527,0.4447391908473839,0.4822963257157169,0.5182923025500736,0.5500977991642899,0.5872669272540789,0.6248266417072608,0.6612993794028232,0.6929286896589482,0.7297948351133685,0.7673556712474121,0.8049170796512433,0.8424243921854437,0.8761171243980623,0.909941523210483,0.946266185648846,0.9692447397117904,0.962490768115894,0.9341709504871878,0.898149598487912,0.8651108451069611,0.8306153307677999,0.7930826633048289,0.7555212549009978,0.7179600933884123,0.6808288381280438,0.6490721635235299,0.6129901637486399,0.5754323104990677,0.5378709020952366,0.5003094936914056,0.4627481056077915,0.4253449006377996,0.3926460238091227,0.357765894216832,0.3202205492894758,0.2826628285319568,0.2465676413446975,0.2147839380565015,0.1796320783578069,0.1661263162087018,0.1660793723655154,0.170589953833169,0.1666884119861782,0.1612655402812328,0.1476988161245249,0.155335095630003,0.1640929582192538,0.1658537375202737,0.165858596944957,0.1658543234094576,0.1642520486392542,0.1585579008248425,0.1581406456332883,0.1581404993277266,0.158140499327726,0.1581404993277251,0.1581359328476328,0.1564446218740862,0.1476673730402253,0.1311137476059356,0.1078147477474651,0.0840042565746577,0.0572918694442303,0.0314783659321369,0.0097495619187746,0.0,0.0147292389368047,0.033493224556115,0.0522696097170174,0.0699399172561576,0.0858889381684684,0.1000579444174911,0.105333580845595,0.1140297690508895,0.1305602316515142,0.1537203102344286,0.1803835997949492,0.2112274998768195,0.2430232153612095,0.2772376658593058,0.3089301283522223,0.3455025450637792,0.377314309766523,0.4101602241434821,0.436525007413538,0.4728181066899644,0.5050214211586621,0.5404545036166937,0.5780050097047844,0.6155313384355634,0.649826157243089,0.6830637917046976,0.720532545702883,0.7580939541067144,0.7956044360070107,0.8293975159854474,0.8631252612161555,0.900621392567772,0.9378494403870344,0.96981424854756,0.9999999999999998,0.9947240930418808,0.9615999265635458,0.9294904688598792,0.8939246067281845,0.8563710637660513,0.8188096675543501,0.7813737477696934,0.7485173354300823,0.7138211255592859,0.6762821193641217,0.6387207109602906,0.6011593025564599,0.5636087964683691,0.5281757140103374,0.4959716413412562,0.458631734046014,0.4210703581545294,0.3835089497506982,0.3459627561224552,0.3108119832277729,0.2783535083393171,0.2409814137525991,0.2034207739631102,0.1672829785846674,0.1562256237766437,0.1582717524240193,0.1630505839626026,0.1657869914070633,0.1610684528352641,0.1462526257969278,0.1482245723882234,0.1575855660879661,0.1581401594711615,0.1581404993277042,0.1581404993277033,0.1581388622935406,0.1571488285146756,0.151119766427918,0.1504230204629109,0.1504225642722076,0.1508677843327548,0.156599754875464,0.1569379587807853,0.1499395181557026,0.1410155562814465,0.1247396372251614,0.0998427199638618,0.0744546774696393,0.051499295388405,0.0277303852220338,0.013920201841362,0.0251047825108527,0.0468349927647548,0.0659090393456127,0.0845573915340072,0.099803557345347,0.1136286513446813,0.1212938572348265,0.1288838003555921,0.1421814793173905,0.1639396506986334,0.1930692778306866,0.2234000184500206,0.2555276165965452,0.2894749441448798,0.3210300936763113,0.3575331546648848,0.3896689560670008,0.4251961417128154,0.462738783083344,0.4981325993339731,0.5304091970602711,0.5677142575862666,0.6052563884430502,0.6400529460796645,0.6728222027587376,0.7102417651360615,0.7478017887116122,0.7843305156562117,0.8159416310054233,0.8527698548619027,0.8900779566939756,0.9198642118376774,0.9236740974818368,0.8923729583495972,0.8575399165505138,0.8248270394426842,0.7874227250521431,0.7498613166483128,0.7123266229129952,0.6779286755205787,0.6447917947137907,0.6073337806502133,0.5697723722463812,0.532210963842551,0.4946927550415163,0.4605729211955292,0.4271736617118518,0.3896834278444521,0.3521258696486669,0.3164759350343029,0.290631113703852,0.2601508093492939,0.2250193833831102,0.1879677756142421,0.1683655358605471,0.1730712646503613,0.1735849019521382,0.1754431495098762,0.17540888787968,0.1642372925517645,0.1534883973445089,0.1577508553780586,0.1581402989190812,0.1581404993276771,0.1581404993276762,0.1581379834597347,0.1569438693504237,0.151089596301523,0.1546503468016193,0.1533872723072573,0.1528850916079065,0.1579331911594865,0.1581224432272014,0.1543932665417229,0.1384637365222296,0.1216458204209254,No
15,0.1863772566022292,0.1770533656835367,0.1580141197154891,0.1334094347220671,0.105757386623718,0.0790885128790563,0.0531644193566569,0.0309507311148025,0.0171877295732554,0.027558245263858,0.0463290065830421,0.0672471954971003,0.0856311538478509,0.0959259474176117,0.1108309411159318,0.1232745405431317,0.1325868007312709,0.151133536588452,0.1760931554012825,0.2112337797760461,0.251443049129697,0.2916124105657309,0.3353436673264229,0.3746610810736801,0.4213180690560321,0.4679207431406269,0.5071382217958174,0.5512010436621446,0.5980854909980537,0.6398430315628822,0.6811499851143223,0.7280146952533524,0.7722833211702611,0.8018234966060402,0.836236959531856,0.8828716586809378,0.9270983657244612,0.9655812295803397,0.9881164352640276,0.9628797611926744,0.9173449905092796,0.8726071798400927,0.8339262680235546,0.7874656888437868,0.7405127951269053,0.6938216870523115,0.6544188722426363,0.610625502633708,0.5636849332716614,0.5167318700297818,0.4697788067879023,0.4228257801544111,0.3761183490815243,0.3365725895982601,0.2929368564261039,0.2459979228048152,0.1990448595629355,0.1520917963210566,0.1051959083117635,0.0712155015435487,0.1015250028448717,0.1437307905847866,0.1831296232646984,0.2129762575929576,0.2238808958053457,0.2310081618147446,0.2241525659425627,0.2233173609607794,0.2218148206298593,0.2027906902395826,0.1777739740749904,0.1832917741393835,0.2005087553879609,0.2013490761195957,0.2013494365201913,0.2013301913539869,0.1978162697899448,0.1905982817188605,0.1903650042938685,0.1903615934419389,0.1885746341364567,0.1800856130114858,0.1782486551005702,0.169604979255679,0.168397176272012,0.1683961398412261,0.1683970201476035,0.1696220021955004,0.1839254327099775,0.1899907977987518,0.1790921403791292,0.1604113252456611,0.1368345272204931,0.1038366218212294,0.0722902756308594,0.0453324795014327,0.0218087435347329,0.0,0.0015146546591331,0.0197250201863226,0.0383951565264404,0.0554856960225873,0.0711326220284849,0.0862863265507023,0.0956941967334756,0.1072350968674515,0.117095391295446,0.1415541003023479,0.1760586248279634,0.2136092454711096,0.2526167322488242,0.2985130901121697,0.3369846567949088,0.3821203176427403,0.4274693219305538,0.4658233591183627,0.5119940016595945,0.5588372559239387,0.599536432321931,0.6419097380919869,0.688821308241881,0.7357741754880827,0.7820215694033752,0.8204864358986146,0.8656523843901651,0.91205938587162,0.950610305562815,0.9912618381836016,1.0000000000000002,0.967378049013894,0.9236964254072946,0.8842940908536716,0.8376495665704822,0.7906965326153135,0.7437434693734344,0.6967904061315549,0.649837342889674,0.6028842796477953,0.5559312164059158,0.5089781531640367,0.4620250938645991,0.4151993210540772,0.3744051119338649,0.3321143706508449,0.2851972691809494,0.2382442059390705,0.1912911426971897,0.1443390641239128,0.0995743297443279,0.0979970226823243,0.1417000816589548,0.1776672021257654,0.1902015897694744,0.1950580400015555,0.195671815929024,0.1990728685899681,0.1965695032447196,0.1903959171037128,0.1796719258410817,0.1510423128593931,0.1466199787089501,0.1652443316198828,0.1683883287042815,0.1683961398411446,0.1683961398411415,0.1683961398411386,0.1684033175635042,0.1710506927769448,0.178956381255456,0.1793805146204292,0.1792614414456057,0.1731958135841589,0.1684365460401713,0.1683961691278259,0.1687047080865131,0.1762725843865344,0.1835226622277244,0.199091978472415,0.2040342289494536,0.2096505409381681,0.1917204516290866,0.1682638232891178,0.1435063593101895,0.1159368992253764,0.0891498131042498,0.0645321133695089,0.0512802473754427,0.0612477310752301,0.0717409508584501,0.0877996895076203,0.1010672678124675,0.1127596502709036,0.1205719550632966,0.1274607793868998,0.1432254292355064,0.1723631455624388,0.2076290971395011,0.2454136136800671,0.2869753619731088,0.3316568261674812,0.3704071376041902,0.4167951090620707,0.463086009669728,0.5015643790434521,0.5466573688605714,0.5900923457015128,0.6298167860267603,0.6765446208475152,0.7234976531130657,0.7704507163549452,0.8173478179030325,0.8591876370862435,0.896402960880166,0.910635901017154,0.8839264550785992,0.8400087468528838,0.7931183409345766,0.7513342140052466,0.7100614013660469,0.6631916873522312,0.6171982968329506,0.5789292220757345,0.5333148602014564,0.4863631456391648,0.4394100823972848,0.392461029873979,0.3474088055830628,0.3089169333308537,0.2625847965165568,0.217626865660403,0.1869313854413343,0.1440915316357214,0.1234894008717697,0.1604931846689732,0.1906969177253499,0.1999762047520954,0.191034405951689,0.1821139292407332,0.1895696268929152,0.20047570605745,0.1934714509434094,0.1714237947418864,0.163840560552374,0.1855835195030291,0.1907328576765061,0.1965032867380582,0.1904773651192581,0.1821940803703718,0.1786576998205513,0.1700950597116561,0.1684067257120247,0.1711696155166466,0.1781990709706011,0.1699766903367414,0.1683980609767394,No
16,0.1124064425137714,0.1278859543754404,0.1401705012687606,0.1608127196188813,0.196334401308583,0.2391646558688358,0.2800385529756504,0.3182755271739266,0.370193882487591,0.4091903908155054,0.4604960886411318,0.5121273650314269,0.5513351223539273,0.6044425358713603,0.6575554984342098,0.6959149830893518,0.7483939674207698,0.8026510484564233,0.8479932945583228,0.8924577753455143,0.9446038197360328,0.9817177465874418,1.0,0.977748740120396,0.9305194485686892,0.8887668505528659,0.8348431550754905,0.790715407299869,0.7450283914351314,0.6907679922342762,0.6364808782363705,0.5821939232597781,0.5293628080447661,0.4905504960189373,0.4382435968067879,0.3839568028772575,0.3296697364844587,0.2758248887076493,0.2355626105940196,0.1857149263100015,0.1314327275181455,0.0773139169008367,0.047660481513815,0.0708101317365832,0.0914225025309485,0.0939602771785703,0.109871008514538,0.111740866859574,0.1117425242852894,0.1116123624378668,0.1003396033178734,0.0729015497428551,0.0405670305357763,0.0484642858643442,0.0664729392687375,0.0738724966878616,0.0739195350244457,0.0743298408419033,0.0880526815009807,0.092753029055459,0.0845461462061814,0.0787712526786137,0.0924715028047322,0.0869399279186668,0.0773789892761889,0.0918725770762121,0.0928309253287684,0.0928310296548522,0.0928310296548513,0.0928310296548495,0.0928316333281147,0.0963793150066893,0.1097518850204881,0.095502576262294,0.0999854495829133,0.11157688421939,0.1117425242852605,0.1117325495321597,0.1055741820505811,0.1028144035230047,0.111648045256957,0.1117425242852547,0.1117425242852543,0.1117425242852525,0.1117425242852516,0.1117425242852503,0.111742524285249,0.1117425242852485,0.1117425242852463,0.111742524285245,0.1117425242852441,0.1117425242852427,0.1117420550491519,0.1101204647391771,0.0944083955890944,0.0928312767962249,0.0928310296548189,0.0928309638179687,0.0922228140867575,0.0779660711201382,0.0783993752994995,0.0860826137637693,0.0741341102910846,0.0739195350243941,0.0739385699797954,0.0830122074095918,0.1101367879074333,0.1118395771528604,0.1233156668406416,0.1344713424271164,0.148883563870509,0.1495653413573747,0.148662361548034,0.1339784501693,0.1306525681913144,0.1285962537783271,0.1110786085132171,0.0943189442982137,0.0928243751301356,0.0882382239934553,0.0743536025917968,0.0756760871452515,0.0912427819833916,0.0856651226961306,0.0740323996852843,0.0744629066223909,0.0895613591692332,0.107330383499177,0.1138658777980254,0.1373620613442439,0.1803894749522934,0.2168906609941103,0.2569134193990012,0.3102383524524943,0.3500462968050186,0.4004261859973388,0.4527275067580056,0.4915398187838335,0.5443708813293653,0.5979892789957133,0.6367708890788641,0.6882972284349718,0.7339809234085171,0.7781086711841372,0.832032366661513,0.8737850821707913,0.9218748774168994,0.9599436336459553,0.9483464005311256,0.9097717047195744,0.8709127782786981,0.8199726681350898,0.7802644307411413,0.7294803386132318,0.6751938201855943,0.6209157303890871,0.5723256528063634,0.5309510779876825,0.4769568588243875,0.4226697448264818,0.3683826308285756,0.3140966989805362,0.261541063540065,0.2231241968109096,0.1701454709439467,0.1158585554694631,0.0615765781470249,0.0134976542188156,0.0171931842781378,0.0394102052940654,0.058959094296203,0.0734034536658012,0.0744080591222782,0.0886711564760274,0.0927304249850435,0.0830059842159589,0.0558711157774012,0.0203361897702882,0.0,0.0142302674398799,0.0268796268179816,0.0505539134868304,0.05500163020971,0.0550080403939294,0.0550080403939285,0.0550463223208965,0.0658874239125211,0.0736973684835438,0.062445531269395,0.0630488783543645,0.0737914283026204,0.0799798608403135,0.0859911707577811,0.0909017120666275,0.0934194705822717,0.1082352607157415,0.1005007158659534,0.0952365544400586,0.1104647465522736,0.1175968018555053,0.1304527983309267,0.1306540057482141,0.1306545658678697,0.1338888570759415,0.1486254944942291,0.1495656907990539,0.1513220656668736,0.1669349326127269,0.1731183347617517,0.1870357674817029,0.1974881088246656,0.2062150065472883,0.2062999974372439,0.2062150065472856,0.197488150352517,0.1874227614826646,0.1871801661184067,0.174071367678525,0.1669864432665218,0.1402736988382091,0.1192724778836886,0.0925467361001808,0.0716258245896059,0.0553292829109333,0.0409979899533179,0.0361046934654738,0.0394208585108022,0.0530174011291091,0.0389728393619339,0.0354152848426476,0.0224005416409922,0.0352436001651366,0.0527650042894016,0.0586884736812587,0.073189231369469,0.0823072008465448,0.1023170059661375,0.1293461256296368,0.1432408290616842,0.1495977182132697,0.1603445460177379,0.1558784853437025,0.1495805548612598,0.1485835242648141,0.1301341707839594,0.1122942145261833,0.111373944566409,0.0975591627204202,0.0928377244192004,0.0928310296547003,0.0928310296546999,0.0928310296546977,0.0928309739465933,0.0923149817210005,0.0782662488230965,No
17,0.9195099145255052,0.9587731103086744,0.9951087386703036,1.0,0.9739022372326244,0.9386583587910908,0.9017546032068786,0.859556135537594,0.8173378063593346,0.7751194771810752,0.7329011480028158,0.6906828188245564,0.6484644896462965,0.6063797064267682,0.5713830807019042,0.5340003413772423,0.4917971524575857,0.4495788232793258,0.4073604941010669,0.365142164922807,0.3229516734557736,0.2852051130248347,0.2505644123240524,0.2088939532150462,0.1893164128891991,0.198688106672936,0.2078849692403825,0.2082593505447754,0.2085087767110147,0.2160032996079355,0.2093359303185424,0.2104527877114526,0.219906973324377,0.219506147815645,0.2080928844690692,0.190032708776632,0.1733965627065619,0.1732205825836239,0.1829401791100422,0.1838472912768054,0.1838474690467784,0.1838470688393423,0.1827078910464101,0.1738402832784671,0.1823748405888459,0.1756559342232539,0.1716530238177613,0.17164148952245,0.17164148952245,0.1716414895224498,0.1716414895224494,0.1716414895224494,0.1716414895224489,0.1716419333508376,0.1727225126552203,0.1826576224582554,0.1838468996542239,0.1838474690467748,0.1838432339767259,0.1810789440926368,0.1704835220730201,0.1538228746567955,0.1327265597453744,0.1110895577737094,0.0838402343392692,0.0557787021442255,0.0298491001286236,0.0039560177165529,0.0,0.0158011671831086,0.0352255618787646,0.0563321693449114,0.0774390580175641,0.0985476850843023,0.1184362123789375,0.1328000765971408,0.145553396571382,0.1528694602049609,0.1593752310086387,0.1594440076927623,0.1628280994396733,0.1718853791468713,0.1815644050437801,0.1890268083907349,0.2094228343638757,0.2369045935913334,0.2658677014462842,0.3038332097100915,0.3362633183104284,0.3762646091091981,0.4086108355511073,0.4497227104557897,0.4918508522582834,0.5272416117765082,0.5642125100981707,0.6063897602271422,0.6486028180989667,0.6879312548034897,0.721200086389211,0.7630571678079905,0.8052753359194953,0.8468069976592552,0.8793109282569391,0.9197180070264448,0.95731071871232,0.9637390820649264,0.9394840578436248,0.8976100717016622,0.8553919012039817,0.8139477354457472,0.781348532232875,0.7409420520671479,0.698724405334691,0.6565060761564316,0.6143228674253316,0.5769661064757416,0.541949658575215,0.4998387389677199,0.4576204097894605,0.4154020806112015,0.3732049684751355,0.3351040448793339,0.3008048072678164,0.2587347434224902,0.2165319864457071,0.1821351337574519,0.1920326548540569,0.2070862087866016,0.208259027887987,0.2082597669321493,0.2092166110354361,0.2190927302565466,0.220464217881775,0.2205241793784083,0.2266756916178223,0.2302488580333803,0.2193537004814461,0.1982903245802925,0.190036977390382,0.1959925075147111,0.1960534485710936,0.1960534485710932,0.1960534485710927,0.1960534485710927,0.1960518076728115,0.1945478033717562,0.1845791379200454,0.1765333459599181,0.179350013099286,0.180150287694949,0.171734063372678,0.1648139182821184,0.1594573170195703,0.1594355099981104,0.1594355099981104,0.1594336435196752,0.1578633808807079,0.1480669834741219,0.1500956582212997,0.1589406458877615,0.1520830819393674,0.1418578262486587,0.1278013275459477,0.1071888147190605,0.0800206557888554,0.0634415967735051,0.037411788080699,0.0157439553957932,0.0020871470754606,0.0177242294291442,0.0406018309711595,0.0617145239360696,0.0817066994147965,0.1018592782958245,0.1222294745093881,0.1362832249594205,0.1478215111005718,0.1582123081072828,0.1596006027607699,0.167827752348286,0.171626894438776,0.1733955003147229,0.1831784427576344,0.1921372998172281,0.2120890949827791,0.2362772312524073,0.2647999538182022,0.3038298993366659,0.3454294455322415,0.3780645646198062,0.4182771265676295,0.4603324665638073,0.4944267869498948,0.532740328444615,0.5749414129820982,0.6170270409272982,0.6515995015060572,0.6894169345699686,0.7316086881302821,0.7731715241005941,0.805703853474121,0.8460605833753485,0.8881076271877641,0.9194806688863846,0.9263065827912356,0.9038854341354448,0.8679697495663885,0.8258267747206602,0.7874777969094557,0.7534176293942734,0.7113611841363365,0.669142854958078,0.6269576600262687,0.5894945901272188,0.5545806008394085,0.5124755177693663,0.4702571885911064,0.4280388594128479,0.3859759773657116,0.3511773163733722,0.3135756600815012,0.2713715222241362,0.2291660333403808,0.1943969516528323,0.195639701541145,0.1960533400001609,0.1960691581923117,0.2010360982262367,0.2082950702229857,0.2164711785286428,0.220446838845155,0.2204641614867242,0.2190726637375064,0.2068330311647974,0.1891775471768673,0.1762774929581787,0.182732793858487,0.1838635940057522,0.1890060114258429,0.1959505642537005,0.1961277844296143,0.2026191327416509,0.208213052510894,0.2082594280954071,0.2082594280954066,0.2082594280954066,0.2081609240125046,0.201255964131152,0.1960701035507543,0.1958147769848621,0.1878144542980857,0.1923314162603797,0.1915912391525442,0.1886970353365766,0.1959066056145055,No
18,0.3284442682524546,0.3417445239557537,0.3665018055774487,0.3840759886082283,0.3849429289985182,0.3849430553999076,0.3849310213063521,0.3797071180093532,0.3469919269488444,0.3025626028783295,0.2552326255353025,0.2123528888079517,0.166556354362902,0.145106141160547,0.1571343121815474,0.2002016340367283,0.2545374924818842,0.2979055059354554,0.3486300919783431,0.4035144494164311,0.4584074473768242,0.513300445337217,0.5681923609191482,0.6213541062288037,0.6536177439973643,0.7007014417584618,0.7555497516411367,0.8102732971118427,0.8557491409410498,0.9041384354522785,0.9589689236424852,1.0,0.9697792274311752,0.9249304668676728,0.8705558947757126,0.8269827300667982,0.7765720696273584,0.7217673473485475,0.6749559150976769,0.6280738670112807,0.5852160438508149,0.5509963814457719,0.5099906433149224,0.4652810580551918,0.4285687779417193,0.3944018315427868,0.370130757745629,0.3544390226759528,0.3582821002611074,0.3667034235691542,0.3556184642885256,0.3675036872124746,0.3681588193201319,0.3558848005385142,0.3602599989661144,0.3573526180340951,0.3258594744853726,0.2961565575486209,0.2629740174881703,0.2358585625074045,0.2160547624532691,0.2027445284641276,0.1848608812238552,0.1756582624467522,0.1757520621232644,0.1855810625750673,0.1917591350780862,0.2007625071630987,0.2077264393271827,0.207155739056621,0.1954373034099528,0.2036121336902754,0.2005933413631764,0.2030905589423963,0.2077755846990774,0.2133589625145107,0.223708200052854,0.2287127408092568,0.2403207377162646,0.252845943435716,0.2560766354994932,0.2560803214077705,0.2560837785041321,0.2586657253293634,0.2706407525237071,0.2610944577669554,0.2711683623499623,0.2721752774558674,0.2667642436953681,0.2416814988775208,0.2246355136751536,0.2319398909387535,0.2456379017423291,0.2708483104361043,0.2959100433656019,0.2908373115282341,0.2882994422128724,0.2882960049058289,0.2878847784969958,0.2728756889893033,0.2408994878768946,0.1911276785787437,0.1488308614651967,0.1005056395233832,0.0557939807507192,0.0075974259186928,0.0,0.025896866449619,0.0702152344197388,0.1249435391686915,0.1797356448522422,0.2258919304285558,0.2735557950445941,0.3284076892612417,0.3833006872216344,0.4381936648675175,0.4927801102270424,0.5368950705620374,0.5867772107648648,0.6416578352745756,0.6965508332349684,0.7514438311953615,0.80626319496674,0.8443038870332478,0.8103700906763494,0.7556762291040835,0.7016614855808201,0.659637136811686,0.6071017554768159,0.5523896805933721,0.5078888005354436,0.4585050754729725,0.4051060647021729,0.3640287274160183,0.3233011115219835,0.2841749055702958,0.2564560347069693,0.2354482420004933,0.2234117446040899,0.2105508655299846,0.2077605105181965,0.2075997793137447,0.1972743311085167,0.1798795948195293,0.1753499108376295,0.1644831879412551,0.1556522530512469,0.1437989876978176,0.1479969887288312,0.1591937405157519,0.1633805968257036,0.1811127860394807,0.2067791371467389,0.2283819263641771,0.2536874585946056,0.2713122388240774,0.272638940941909,0.2844417861878812,0.2882890611691779,0.2882960049058578,0.2882985121150598,0.290412734783152,0.3033758116027507,0.3044036028807779,0.3044149459534395,0.308802534166241,0.320192238813501,0.3205116884039105,0.3205638158488595,0.3276147622102106,0.3365108744020033,0.3366195301529364,0.3366192592928199,0.3355518847333814,0.322563812365106,0.3205140175092777,0.3205116884039203,0.3198501966868594,0.3034378975961673,0.2782291910721444,0.2722636956284585,0.2788404078546183,0.2981406046412971,0.3243913006364147,0.3364534914701456,0.3366195301529497,0.3366176767731503,0.3337338126004812,0.3210578456168393,0.300797492476256,0.2562371503688969,0.2093104345909315,0.1616343931483839,0.1157474345977251,0.0724213020932369,0.0498208921544072,0.0726485911984142,0.1228605967670528,0.1668058271952759,0.2168647517563191,0.2717459871088548,0.3266389850692466,0.3815319830296411,0.4363550152205664,0.4828351646915871,0.5301580563615564,0.58499613312219,0.6398891310825827,0.694782129042975,0.7496726989514317,0.80248010882696,0.8443988711773209,0.897668269403602,0.9192666634802352,0.8794263753685394,0.8248450340985749,0.7705003666961705,0.7276026254797907,0.6762692387886915,0.6213906994094538,0.5708844864831883,0.5273278765948275,0.4738597448472816,0.4319917714994719,0.3865872958463048,0.3447882444458767,0.3038720492254194,0.2716883705176172,0.2509316410239419,0.2402156552851773,0.2353040328335511,0.2235233426663061,0.210839713995238,0.2077606891620842,0.2068255864512536,0.1939236098617587,0.1916518969859186,0.1914619997434163,0.1808865368635044,0.1755672471205422,0.1756510425727939,0.1847749168489225,0.2030876802154537,0.2240843341803109,0.2498961732402183,0.2679698607030953,0.276722423992759,0.2880161656829285,0.2882960049059129,0.2882960049059138,0.2882960049059146,0.288296004905916,0.2882960049059169,0.2885448429052157,0.2985759721053189,No
19,0.5190032480021136,0.5034683614881006,0.4944281185867196,0.4944010434791317,0.4944010434791344,0.494401043479137,0.4943712768318438,0.484994849291291,0.4524470837358878,0.4449574359563693,0.4451395134203664,0.4644079044054603,0.5074935096536053,0.5207270342964856,0.5396489192441241,0.5201650315225566,0.4955779887858447,0.4819342226586935,0.4648630483288474,0.4407594527176415,0.4147021977791394,0.3686095854755429,0.3044252278544164,0.2438098052109363,0.1787679283223058,0.109980072915178,0.0611628698456576,0.0633549270531901,0.127757280797006,0.1828003852172823,0.2568830480049575,0.332039256723784,0.4026242353561375,0.4585433663793044,0.5328070725185006,0.6066440924420071,0.6625484648055435,0.7335696606218178,0.8087155835236786,0.8747701577034919,0.8657364629576385,0.8052317609762367,0.742462725847715,0.6795976499989012,0.6055447196828325,0.5499529332256587,0.4800329011361697,0.4259875087547247,0.3758601203263221,0.3257409135053111,0.2807111353719014,0.2433066581798844,0.2211882386354249,0.2001379763577704,0.1956672772447323,0.1749139498572218,0.1561500775246158,0.1395745194412994,0.1209451173176541,0.0913173491256822,0.0645373260971577,0.0394357926648325,0.0143847664620651,0.0,8.00992785787713e-06,0.0160746293336209,0.0546172095667576,0.1025021541638957,0.1408838545622894,0.1958971903986697,0.2524313095036592,0.2904425435364128,0.32761263975727,0.3457707779556456,0.3485997252827539,0.3784819986615901,0.395369141347536,0.3954756572734013,0.3960727888759239,0.4144723299168391,0.4202040082892968,0.4202069779268687,0.4202069779268713,0.4201751924704218,0.4110720538175925,0.3957656198761512,0.4008529853560652,0.4194564961918763,0.4261114770252918,0.4442651200672425,0.4449383331110175,0.4449383331110201,0.4449383331110232,0.4452247434248804,0.4607100144916423,0.469639921647861,0.4696696882951601,0.4696667877189338,0.4640603550326276,0.4543817001476817,0.4634624672846787,0.4441586706760576,0.4228974892187129,0.4134036901642632,0.4062591212872704,0.4308089173721514,0.4488815800536887,0.4842381655204066,0.5182122395599178,0.5307773032384864,0.5262825773350297,0.5191515015089188,0.5191309483753326,0.515582490001258,0.49219922849093,0.4553928698992218,0.3863475607282973,0.3155569256290294,0.26747164207675,0.2298157524439745,0.1737303255260531,0.1513500887963483,0.1814315816081335,0.2481486402465282,0.3146462913839878,0.3739479829224033,0.4489147470818611,0.524078669700283,0.5987366821027358,0.6556085648319954,0.7248378929158408,0.7962070518318276,0.8514713210696625,0.9241295953244472,0.9430475618810245,0.8898482530794647,0.834977057259743,0.7715290409881126,0.7110123919520497,0.6360971608283927,0.5616291205196839,0.5047880045831672,0.4477009688357638,0.4094935384884155,0.3824674165320312,0.350871946974653,0.3409821974528375,0.3221981190339207,0.3202231220136751,0.2991104419464041,0.2752199985633776,0.2657886520827013,0.2474433113094201,0.2303249611513811,0.1986874634665483,0.1682005899401235,0.1485295451914829,0.1520899635689128,0.1729098295610027,0.2053428084566211,0.2470303447606547,0.2847299773051523,0.3310182997002622,0.3809627464716834,0.4218728945809049,0.4457964401039627,0.4676685986905826,0.491199273907783,0.5092950921043622,0.5190925379704447,0.5191323986635199,0.5190541805965019,0.5059667175214679,0.4945071113403596,0.4967776999983648,0.5172735134983433,0.5191288765352571,0.5130002365155826,0.4952303520769181,0.513000236515587,0.5191291527806214,0.5191319842955151,0.5170747564293956,0.496686616734515,0.4953716205291454,0.5187794368150636,0.5429617072429798,0.5450997114014111,0.5642517605045541,0.5685934860903581,0.5701031768650697,0.5857329310407362,0.5700576179678043,0.568613435554747,0.5755544335911367,0.5948208519312717,0.6230925553717794,0.6606577936524287,0.6898703780858808,0.6922512634004248,0.6922518849524764,0.6921554976030615,0.6775089510584706,0.6663145981169452,0.6388442966308547,0.5941851465235732,0.5234127394606309,0.4688168289158176,0.4042979569468388,0.3740449992810042,0.4067695777392135,0.4619987733430615,0.5323248028473255,0.6074746773495763,0.6771411532640705,0.7338240882745506,0.8080282736118782,0.8692162840411397,0.933873320835488,1.0,0.9962052674498194,0.9399936211596528,0.8770493247700353,0.815108400264152,0.7524407130044253,0.6983628909262256,0.6472027032281584,0.591220802245223,0.5529676135789767,0.5219040011955141,0.5176718736377648,0.4967630533739289,0.4783267958973791,0.4619621333979817,0.4449443757172031,0.427709726258128,0.4026914143815139,0.3780833801038898,0.3607639869486512,0.3283284258489702,0.3111125257503047,0.2969947786493199,0.3105850664911078,0.3279048691956108,0.3621908022164053,0.4095002415360325,0.4596214511358694,0.509442475059656,0.5434495907516608,0.574251616558362,0.5933620982997017,0.6105001480428358,0.61804102640453,0.6120250357866999,0.5937876097401444,No
20,0.0,0.0042655236806776,0.0271659329226983,0.0830119816363175,0.1278812964486024,0.1724615684298633,0.2211416541224657,0.2694111489843807,0.307474903239854,0.3132105885845186,0.3588809225267244,0.3883877478851936,0.3892872191674614,0.3895631057083828,0.4045250991076266,0.3750942237440338,0.3090020350032585,0.2420981024580202,0.1766050873572915,0.1374751414089874,0.0871256029464246,0.0343528793126228,0.0155251292930085,0.0141257496842865,0.0750251216859658,0.1324228624753289,0.1659656071946127,0.2299768457397366,0.2950279106577778,0.3317159384748125,0.3833326046185523,0.4148456386864199,0.4216920011854324,0.4488964710097316,0.4914168636199894,0.5149398949723016,0.547725330377943,0.5742354436628463,0.5943513449657871,0.5953880481987412,0.595388176682146,0.5946682707635738,0.5770673829977491,0.5864060110393376,0.6140504107978524,0.6530816736963323,0.6757221393155808,0.6869449138299277,0.6869758403149788,0.6803660366078859,0.6584388325770161,0.6418393994947866,0.656632633348309,0.6446863363350701,0.6411930647812123,0.6411883908907985,0.6411883908907994,0.6411883908908016,0.6411883908908029,0.6411939961221651,0.6451578052979374,0.6734341935351886,0.6869778530237114,0.6960878018593979,0.7265903687039166,0.7405084622675191,0.7554370669617096,0.7514653880571665,0.7332013278361806,0.7115172923869819,0.6878592756801267,0.667413838552211,0.6345065752950623,0.6109573309740619,0.6056012573568381,0.6182709687667307,0.6271778470521068,0.6568103303787618,0.6444541710246607,0.6483010828198963,0.6639563495305687,0.6779454901846784,0.676757552767814,0.6637686136664231,0.6355045317278138,0.572644033063606,0.5247360343888983,0.4747861039691918,0.4375186035106324,0.4376063702531283,0.4753992085433229,0.5274427667551813,0.5941187912820434,0.6545468439837894,0.7054638405768516,0.7719351129852123,0.8338482384075534,0.883484914398522,0.9496590692446384,1.0000000000000004,0.9700229471494032,0.925321332414072,0.8752978222263246,0.8088161084169321,0.7544542737531037,0.7027810861022679,0.6758799923364456,0.6606367654111955,0.639266874049309,0.619718720008362,0.6097947583227099,0.5956096246453857,0.5936229747001356,0.5745642011177092,0.5724112904381955,0.5586416608539113,0.536535285871012,0.5267635378375894,0.5266878553692846,0.5266878553692864,0.5268555264442254,0.5393934892418328,0.5544269013742507,0.5831514351638445,0.5960997134952772,0.6132284811778872,0.6021722931893216,0.5691849943803078,0.5500367890377174,0.549586908909705,0.5450915261751201,0.5292500267763232,0.5467845258093624,0.5393528571455146,0.5173366779347988,0.5039770637179601,0.503787748264994,0.5035369166815404,0.4886166126284474,0.4809041292220843,0.4831189035953689,0.5023855622168063,0.499017681667838,0.4816839428176793,0.4810878880135654,0.4946106012968387,0.5037578020999853,0.5039223874459249,0.5128758517136922,0.5054712339602121,0.5044679651418198,0.5216470618709552,0.529205722931088,0.5506525866696377,0.5709958619016993,0.5724395396401825,0.5598738267073422,0.52735426791484,0.5049495824969124,0.5091677119348406,0.5309892232642941,0.5534304790938238,0.5865560751018206,0.6275729415712559,0.6346908561551405,0.6185749989407165,0.6182883030591233,0.6174641391269025,0.5989758258724418,0.5829246218957982,0.5387639430569693,0.47344108168704,0.4232998872740992,0.3710077705816617,0.3288654988212265,0.3244436439301901,0.3565717472204488,0.4185268310375925,0.4768702255646069,0.5296007077413019,0.5944162410711091,0.6424185022846602,0.7072847974447978,0.7740047164206785,0.8278824474361457,0.8851227494092773,0.9458067007338662,0.9370915079505502,0.8908866595077929,0.8258258345273508,0.7590337293048708,0.7062080493443865,0.6622787941383956,0.6282783295618426,0.5986377686850823,0.576872850587292,0.5719139956668946,0.5549596703078641,0.5495972930688215,0.5495660342862703,0.5416067708999943,0.5266924122129817,0.5114768202740203,0.489252433305066,0.4800036135011578,0.4610162760038623,0.4653477381055988,0.4805846902067294,0.4810823677082285,0.4944490811213997,0.509128364508856,0.5261069344389981,0.5267960044047442,0.5375928570620028,0.5594575526936816,0.5575110989785506,0.5499347214277881,0.5663862364813608,0.5724776104157558,0.5679003332415977,0.5506727894091519,0.5636519239165936,0.5689645523638811,0.5477962778512042,0.5281824452026624,0.5266880802153651,0.5266878553694108,0.5267473045541973,0.5358393729634354,0.5342801362700031,0.5087067785219066,0.5250301909440327,0.5337961859418612,0.5492504901186233,0.5510823531577156,0.5693571251664444,0.5724948179842433,0.5771153783700513,0.5947030170108469,0.595388176682377,0.5953879968056133,0.594169271672103,0.5748980312252461,0.5804130538296408,0.5815682613853763,0.5414747903379884,0.5227601702715265,0.5050728049758408,0.5169843148088944,0.5391448273136006,0.5623253791996996,0.6017162944142749,0.6026990541966692,0.5984169186298218,0.617373672127921,No
21,0.0220197946346454,0.0355038991066334,0.0550955250483178,0.087508735524604,0.1219672792776722,0.1663509748192329,0.2119628412364758,0.2613100787223814,0.3121399359780805,0.3566877320075519,0.4116418475228873,0.4562028555047774,0.5069522961737887,0.5624589737838601,0.6139024611712807,0.6579627799923964,0.7130618242132569,0.7685176963611937,0.81600908089285,0.8636625940127995,0.911342944900305,0.953108890879883,0.9729232027232952,0.9511591698796318,0.901913831867088,0.8594177622449357,0.8052998679258097,0.7497755073606425,0.6983273161762198,0.6543237987859838,0.5991751774262628,0.5436494332411872,0.4917299657761584,0.4480609910279205,0.3930498807622125,0.3375186101997909,0.2828932337042436,0.2398921180535578,0.1869395445034047,0.1371238750389256,0.1053144522511453,0.0597255379848311,0.0662610271093302,0.0796540883745122,0.0802352302700986,0.0912055770401427,0.0954678312144414,0.0834885978501569,0.0716600915570295,0.0334361785737233,0.0251241518457097,0.0446178610339296,0.0665617645915306,0.0793467268820564,0.0739178774186815,0.0787068339681962,0.0667584952324635,0.065609246170319,0.078204681753101,0.0686739103360274,0.0640152412777217,0.0640023752199296,0.0637258073306075,0.0574631948286699,0.0580063652238647,0.0626677352247555,0.0518038674193568,0.0564054005804739,0.0605559244487929,0.0496613060410968,0.0618929119186404,0.0639997566093506,0.064002375219911,0.0639507738000979,0.0572677832188599,0.0512683786159007,0.0634242129864688,0.0640022236787762,0.0640021058134538,0.0626203730740893,0.0438150978529567,0.0282814170081002,0.0107102252130641,0.0001800297612888,1.7763568394002505e-15,0.0,1.677308458614135e-05,0.0055327713211519,0.0157428978394738,0.0163834450624964,0.0279120738056284,0.0336369061128261,0.0546808735513071,0.0838379631130412,0.1322538237220909,0.1786022410140959,0.2274380143571943,0.2786395769671985,0.322862388191099,0.3779711711020224,0.4274152330130554,0.4732522791582934,0.528584322404229,0.5839357652601986,0.6293886492302221,0.6792118651490235,0.7346602101114641,0.7826994371227038,0.8298503286487295,0.8844393030284912,0.927025436030822,0.9650482333174288,0.9752892710803418,0.9494322158476828,0.9054702282188272,0.8551692075633914,0.7996532056884584,0.7441217330712031,0.6885902604539487,0.633058787836692,0.5775878580001526,0.5293068485633672,0.4823633065112944,0.4269334911726421,0.3714020185553859,0.3158712209101817,0.2619016433836347,0.2193940100459603,0.1652761157268334,0.1098239441830513,0.0650815628767604,0.0657680278228514,0.0795950443248392,0.080022296280243,0.086109706986464,0.0957391199973107,0.0883807962112759,0.0747561488050436,0.0535865992624042,0.0268428806530232,0.0419111645420016,0.0632047221169966,0.0794474342008841,0.080002834321593,0.0800029690248136,0.0800029690248114,0.0800029690248091,0.0799647796463531,0.0740249667603465,0.0641693429006697,0.0640023752198302,0.0640022910303139,0.0635407461747346,0.0519826330935169,0.0561250593068827,0.0639328910782004,0.0640023752198191,0.0640061248817431,0.0673328166811573,0.0794539400884355,0.0799557035822009,0.0735529130243106,0.0641432187397508,0.0640243576734582,0.0706800724836504,0.0776427117301046,0.0637669736701789,0.0478758532984509,0.0294546689723813,0.0165158858583946,0.0126188870884744,0.0006058909830461,0.0055327713210591,0.0157428978393805,0.0163834450624036,0.0279114002894211,0.0320310285986198,0.0392558588524267,0.0481653703727444,0.0625160444773356,0.0899361063271944,0.1204540689163335,0.1619632887809707,0.2105109412055434,0.2659863417225363,0.3209286964412383,0.3644303998684788,0.4165855054738072,0.4719316086252987,0.5173844925953239,0.5672077085141254,0.6227053277301553,0.6773040394170478,0.7200960344595977,0.7733026825461402,0.8285854189339075,0.8729234789661398,0.9236721977396312,0.9674844954365796,1.0,0.9985383240183796,0.9696703410889648,0.921236547313154,0.8784166988513942,0.8250650379253046,0.7695393918557767,0.7171486481101419,0.6738142160038989,0.6189406168322038,0.5634091442149489,0.5078783465697443,0.4539087690431982,0.4114011357055225,0.3572832413863951,0.3017523749336437,0.2462209023163888,0.1906894296991317,0.1351580581092935,0.0803997919559815,0.0629619022126708,0.0915816713584081,0.0959980042324906,0.0960035628297037,0.0959832561730573,0.0909694828203293,0.0794093958465147,0.0615858425032134,0.0370289020413738,0.0445516710284579,0.0615578813600787,0.063998590426078,0.0640023752197453,0.0640023752197436,0.0640023752197413,0.0640022741923216,0.063511612877559,0.0517158110339059,0.0491472980358254,0.0618028611948391,0.0541062894935331,0.048021159183877,0.0480172521570763,0.0531064066385216,0.0544098251543418,0.0529825685490825,0.0638272561799997,0.0735529130242182,0.0799557035821059,0.079453940088336,0.0673328166810547,0.0640268049930239,0.0703960965015824,0.0798326729504426,0.0799740577651837,0.0756361827708302,No
22,0.4454950170717029,0.4304513288920786,0.4289415033806913,0.41149820684939,0.4093415296850398,0.403260766522286,0.375246734040414,0.3464001025461489,0.2860605102599818,0.2233984930087911,0.1607359343403995,0.0980779859359901,0.0390602747272357,0.0139462907731293,0.0,0.0445958855166175,0.1031538674866747,0.1354329603434116,0.1909834627447617,0.2536297144209802,0.3161627755603557,0.3641736867160037,0.3847977679458449,0.3885685751494172,0.3887114878290987,0.4006269181126907,0.4277060520727498,0.4487843707861545,0.4796267658242921,0.4924182251800255,0.4924645121545201,0.4924645121545259,0.4924645121545317,0.4924645121545383,0.4924192578767745,0.4829819348103341,0.4773395276551726,0.4919967092250834,0.4924648894317096,0.4939874253706198,0.5106730997926712,0.5132425118675479,0.5132433840147188,0.5132433840147246,0.5132433840147312,0.513243384014737,0.5132433840147428,0.5132433840147494,0.5132433840147552,0.5132433840147619,0.5131783011321729,0.5010026394264835,0.4704965377090424,0.4515515701563983,0.4528830308826541,0.4721414379283679,0.4982586626205094,0.5204365348015019,0.5359598568070489,0.5534980208404878,0.5548010003427906,0.553814579784889,0.5363857433141437,0.5276710939638054,0.4809344963559243,0.4333910559457337,0.372381766052408,0.3473898342688168,0.3586964076714443,0.4126152780514309,0.4581829838320801,0.5199219066913683,0.5795551220926765,0.6253476394647257,0.6871340214639305,0.7497964649892981,0.8117435843120955,0.8585824050670063,0.8935594823295085,0.851875369938325,0.8102097154189627,0.7828761680326535,0.7541227054836588,0.6979827301426957,0.6430502917785788,0.5956708306873892,0.5525113403832878,0.5107551769649215,0.4749613851109386,0.4496611854792878,0.4315757182817643,0.4301384913749912,0.4349384614125045,0.4503249151813233,0.4509067684345096,0.4509067684345162,0.450906768434522,0.4509067684345278,0.450906768434534,0.4509053671194345,0.4474346808618512,0.4277197248381483,0.4161481238116504,0.4354822455984868,0.4520478326453818,0.4707899540213711,0.4916644687843785,0.5108890698569621,0.5132426392600902,0.5132433840149777,0.5132433840149844,0.5124591834133057,0.4960532409403795,0.494302263814582,0.5113567086143607,0.5132434207627847,0.515166203890447,0.5323356611051575,0.5340219030965296,0.5340422018494402,0.5413218960342534,0.5546313272645351,0.5538550492548211,0.5366539881738679,0.5416791426443077,0.553699964954868,0.5362857051210153,0.5201437595334433,0.489321157954429,0.4720397025868057,0.4800017612261777,0.5012373378291066,0.5294930482308939,0.5527185478683361,0.5775382156784046,0.5954569414875381,0.596358871455632,0.5963439797290051,0.5897620503905716,0.5670749597351374,0.5199614259727161,0.4713026462584593,0.4231088828172913,0.3834269268206292,0.3719179214412991,0.4027247813192387,0.4612572155725511,0.5239104640405707,0.5824589544680845,0.6291601692007447,0.691126824292255,0.7537893829606461,0.8164426526737798,0.8745483982140305,0.9214200710847762,0.9547903422596562,0.9182055121855944,0.8727517471925119,0.8503039399676235,0.8177390370778288,0.771823108746641,0.7234132303620444,0.6754144289828079,0.6297814449660049,0.583870068191009,0.5362178308713585,0.5043677628413943,0.4825712573118208,0.4718182797305963,0.4716839939946617,0.467798158587779,0.4517765668542304,0.4402810452249284,0.4301768714825216,0.4192640103275873,0.4094651023926632,0.4159597243830375,0.4298440457802366,0.4292958684179289,0.4126483652507202,0.4093723679588184,0.416687831806831,0.4446729666715816,0.4675009046370904,0.4909838073603985,0.4924642867687914,0.4924645121551423,0.4915000384611598,0.4741849209065627,0.47200915469665,0.4871038971824606,0.49246202310596,0.492464512155176,0.4924645121551823,0.4923352130021916,0.4796887538028058,0.4875639737764996,0.4910258255563544,0.4742709126156681,0.4861740239519512,0.4736591417606077,0.4716861645633319,0.4716851993218132,0.4698313049279368,0.4458947746330062,0.4234232935004485,0.4097026313343157,0.4200319621833044,0.4506202338306759,0.4819079699910493,0.5101174347690174,0.5350965917356709,0.5710172580563486,0.5755783728943404,0.5751563451787236,0.5605663691635439,0.5520766434674327,0.5242835308518043,0.4822255575434244,0.425062850773513,0.3624519680592968,0.3091893116429549,0.2861736570519797,0.2979301818642117,0.3417463133498297,0.3985899876431453,0.4462740791127926,0.5084357234674064,0.570894123111553,0.6177030093544871,0.6502247377645829,0.6971769063064124,0.7594119012289804,0.822074459897371,0.8847370185657621,0.9471626228812288,0.9947428082183838,1.0,0.9624692172480378,0.9164511357192168,0.8546506746070359,0.803175326864122,0.7500239351644287,0.6988675727048066,0.6474298296058372,0.6183222024415267,0.5827494584968211,0.5377732042389067,0.4901141455502964,0.4492429926730068,0.4256254291609314,0.4097854333806614,0.4083661803058538,0.3909583140322707,0.3885709508517245,No
23,0.1638115188799229,0.1638115188799194,0.163809409884684,0.1614490677889892,0.1456921689201333,0.1290457990007012,0.1092336259573145,0.0846675571541109,0.0728635033895184,0.0671252876866193,0.0423967364050947,0.0363561010844089,0.0370044434911136,0.0507279163372729,0.0595217833488619,0.0746455334275699,0.0895713481002564,0.0920517407562577,0.1068981531078581,0.1097551556477585,0.1278231604262973,0.1720034402200374,0.2123197337709634,0.2590370332081897,0.3045798425736561,0.3554315741541991,0.4022530830898225,0.460724544140183,0.5062091717719746,0.5625610830443417,0.6221804218216014,0.6780895483861826,0.7238642350212707,0.7828521898769858,0.8394145866827261,0.8796381799505335,0.8890691264598227,0.8555799653946687,0.8052683320578744,0.7461371619569723,0.699702426886684,0.6446943103432257,0.5906573549339429,0.543397558219016,0.4840086412195976,0.4243822814618609,0.3647559217041243,0.3051297589207991,0.2465996172310509,0.2012454801185219,0.1445162154487054,0.1030288505670271,0.1300012876929401,0.1596762332455892,0.165061327928556,0.1800420169708574,0.1821117761565842,0.1913623685992656,0.1867943385007069,0.1845554656573562,0.1936189758490454,0.1730535569302111,0.1331527906727276,0.135758872236456,0.1690591800274843,0.1832322257534389,0.1973082989899444,0.1850801292023725,0.1820231699361003,0.1820207664704827,0.1820207378489402,0.1816982243803173,0.1694503479919258,0.1699183709966054,0.1814852073373112,0.1704953926868095,0.1638224466068978,0.1637947831747639,0.1587650083626925,0.1459724135172,0.1456036352106013,0.1482960648696409,0.1626383791019399,0.1637621782424712,0.1554510168738194,0.1454163291640693,0.1279796904090631,0.1067688616848054,0.0829775079616519,0.0674067786628977,0.0405432050664047,0.0192100654795677,0.0086050768429579,0.0,0.0047612248211512,0.0240799103539965,0.036798759815229,0.0510078866187684,0.0598304023960696,0.07247863948845,0.0813246194055996,0.0910117210688672,0.1029750043412862,0.1250500554626699,0.1576296145514741,0.1985044143831831,0.2550662849521559,0.301678963201041,0.3523223431793001,0.3984183623998851,0.4575835752449917,0.5136390482515383,0.5593436432995333,0.6182572800656168,0.677883431522154,0.7365426413651774,0.7814592631653592,0.8385556859475063,0.8980840417706561,0.9479482517490888,0.9918833180277162,1.0,0.9674960352107632,0.910781295203599,0.8660169394526047,0.8074903909173332,0.7479034515538667,0.6954261632196985,0.6466936112450479,0.5871944220890417,0.5279748099353472,0.4814750917074328,0.4265175986361531,0.367229153220173,0.3199693502679155,0.2658458814635041,0.2065979797846098,0.1770869688571621,0.1977776331074432,0.2002312901354836,0.2036578892541465,0.2176046319594071,0.2104440809476835,0.1908056386824483,0.1820830315743529,0.1796466730065735,0.1554875798629011,0.1339172620836963,0.1553100915880234,0.1796245360399231,0.188749245986568,0.1892953161520649,0.1820536665388843,0.1820207664703144,0.1820254569329153,0.1858518054218709,0.1926686021957224,0.1821540924472899,0.1817487744019077,0.1701436996313758,0.1632444678332127,0.1564327350695684,0.1635945593867624,0.1638117955544729,0.1656978226863708,0.1804256406476847,0.1820198162755391,0.1820207664702695,0.1818582787779235,0.1713871702525953,0.1518164745976307,0.1378682298587112,0.1170361953876386,0.0934144419833113,0.0761455533676431,0.0523872818197959,0.0357774757140552,0.0244795204562988,0.0360355859865233,0.0491553272969778,0.0715134822888914,0.0912347963944495,0.1069630470970923,0.116451823188957,0.1273029957541087,0.137945082249518,0.1456015110835005,0.154165544825565,0.1824356572453509,0.2162347816404821,0.2579345560047721,0.3023758134461567,0.3475427087528393,0.3987754306567068,0.4457751407831005,0.5000952957359632,0.5597019841452542,0.6193283439029904,0.6789547036607262,0.7385810634184646,0.7981902144570654,0.8509154523903457,0.8994805713409786,0.9577232913002284,0.9944181157808276,0.9967550266960266,0.9645507710340347,0.907462246439426,0.848779533615172,0.8035629163225106,0.7629028338657577,0.7231175710828044,0.6641549656765213,0.6151545410423211,0.5628856100757393,0.5032998854392936,0.4481504405080159,0.4017427073984492,0.3426191829782965,0.2831552966021311,0.2337196489688122,0.1819615519327144,0.1392941831054277,0.1605962125539193,0.1807945831285691,0.186696209610127,0.1996944549277128,0.1903201167082282,0.1761910537155802,0.1639825308085449,0.1627750706062958,0.1432239095472782,0.1094468026463548,0.1043190918311935,0.1335097514745191,0.1594885179805119,0.1615290099427828,0.1528823496262705,0.1588572505345942,0.1460607987357409,0.145081291761981,0.1313338058252382,0.1258027962469117,0.1110700799141697,0.1091840623227771,0.1091837443056751,0.1088446002615945,0.0976017237522759,0.1071753749338997,0.1099061960532949,0.1238364632409383,0.1273901035424698,0.1273930236980471,0.1273608220382964,0.1220007855896501,No
