,0,1,2,3,4,5,6,7,8,9,10,11,12,13,14,15,16,17,18,19,20,21,22,23,24,25,26,27,28,29,30,31,32,33,34,35,36,37,38,39,40,41,42,43,44,45,46,47,48,49,50,51,52,53,54,55,56,57,58,59,60,61,62,63,64,65,66,67,68,69,70,71,72,73,74,75,76,77,78,79,80,81,82,83,84,85,86,87,88,89,90,91,92,93,94,95,96,97,98,99,100,101,102,103,104,105,106,107,108,109,110,111,112,113,114,115,116,117,118,119,120,121,122,123,124,125,126,127,128,129,130,131,132,133,134,135,136,137,138,139,140,141,142,143,144,145,146,147,148,149,150,151,152,153,154,155,156,157,158,159,160,161,162,163,164,165,166,167,168,169,170,171,172,173,174,175,176,177,178,179,180,181,182,183,184,185,186,187,188,189,190,191,192,193,194,195,196,197,198,199,200,201,202,203,204,205,206,207,208,209,210,211,212,213,214,215,216,217,218,219,220,221,222,223,224,225,226,227,228,229,230,231,232,233,234,235,236,237,238,239,240,241,242,243,244,245,246,247,248,249,250,251,252,253,254,Target
0,0.144256560791812,0.1481944043170466,0.1930354086309726,0.2656259516083663,0.3500761408784298,0.418588945662949,0.4753872268380248,0.5356969977357475,0.6116279489756389,0.6793496116533753,0.7633093962969668,0.831823004279292,0.909673964678404,0.9928294189695266,1.0000000000000004,0.919209412167246,0.8342338596510293,0.7499033260192385,0.6825230096824435,0.6034249772005538,0.5184596807814654,0.4336054536572247,0.3609528975806109,0.2919297255469057,0.2443777608700306,0.179693667372887,0.1261534432563698,0.0585027452113844,0.0159268585939509,0.0,0.0132258936078568,0.0865926428331183,0.1544843967232703,0.2130669835429843,0.2758172140436303,0.32046781795801,0.3288372598833993,0.384725376230898,0.4320801409943384,0.4418376655018701,0.5017984053424311,0.5292287278342416,0.5222743094645628,0.5213414429076924,0.530610585770591,0.5455007674082339,0.5660385338169012,0.5823721934417381,0.6198525300130626,0.6426457365369176,0.663594403026972,0.6918412668960419,0.720566857245021,0.7646100204696684,0.7964967318121965,0.826816701078799,0.8317850658295192,0.7850254939015477,0.7384950828391426,0.6832958019311048,0.6406716442795926,0.5981917275255939,0.5611007201124325,0.5464807295187484,0.5307632046768229,0.5303351330269024,0.5286736314849532,0.5109297354954769,0.5267669974778824,0.5306742483799343,0.5456761626394657,0.5544855725909037,0.5627810377255513,0.5619440235630466,0.55449717781678,0.5542828779064322,0.5408323076021997,0.530423524940681,0.5303355151981441,0.5303418208593302,0.5342249296614305,0.5671498760958933,0.599660593947386,0.6281105955710471,0.6482651121752951,0.6198623134356032,0.5590906249241159,0.5175180042219338,0.4825074061512131,0.4542290981906545,0.4345917183823653,0.4337833602121468,0.4240515903121902,0.3911894537181282,0.4033555764221375,0.4581055445130721,0.5138733241424389,0.5609692149474608,0.6282478941728313,0.7016458752666286,0.7844138312356219,0.8499084065428453,0.9169968249491708,0.8731847512787554,0.7884338289131203,0.7034577986828974,0.6198933319722424,0.5540438101296492,0.4726540199964955,0.3876838224101178,0.3042781617411174,0.2423525447910282,0.2279107652266576,0.280705168150718,0.3565098036379179,0.421794192511375,0.489118952087674,0.519124614365972,0.5097340763604761,0.5248537666842883,0.5083891603943802,0.5250170270653749,0.5304691250742422,0.5494295587065139,0.5873852461132545,0.6029940343864131,0.6233067286344385,0.6569592071867794,0.6928290527169643,0.7259282536146672,0.7512910007589526,0.7704430450645385,0.7631092053706632,0.7229115504057799,0.6709716520886895,0.6335803560589848,0.5849193246976401,0.554543448706108,0.5333166097591593,0.5177254400201772,0.5063116770594216,0.5062053337143602,0.5062055236488483,0.5070191626650549,0.5249974663597143,0.5303291711505476,0.5324405909110039,0.5515037240416416,0.5378994088435225,0.5471630625070518,0.5497766243214222,0.5312735197281402,0.5373588043847546,0.5584178749104312,0.5920066349301134,0.6204190944508268,0.6411022203326531,0.639699049995273,0.5911274597654121,0.5415650434177337,0.5060200061255529,0.4740188614798746,0.4582824973031232,0.4577863640561244,0.4389039951409983,0.4105234840014207,0.4194525822716017,0.4726992741100959,0.5403383539106894,0.6169074138586481,0.685848487925564,0.7631140922774899,0.8311457874419284,0.7880616468089134,0.7037416233129332,0.6187655332245705,0.5337895766659062,0.4502823167905547,0.3844649492855851,0.3032603711548471,0.2372043353174993,0.2351443739695904,0.2875803137284878,0.3586465345583893,0.4260525874665495,0.5007767408479098,0.5140027895002475,0.5070164448923755,0.5209644189043479,0.5077188053820096,0.5186315514239697,0.5393068677419883,0.55426693220994,0.5646703998639802,0.6039820942362115,0.6300719423785108,0.6525048903889168,0.693788538925526,0.7246199419427044,0.75660976596409,0.791218444717217,0.7851515569033194,0.7368171445860239,0.6916104023429748,0.6411128203264504,0.6075412391356632,0.5496410154567628,0.5296351353626134,0.5122432128076384,0.5245272736550581,0.5303246872175822,0.5301773690131464,0.517184168183709,0.5082505657264567,0.5274923219451972,0.5303341016253831,0.5303355151983982,0.5303355151984017,0.5303355151984048,0.5303355151984075,0.5304836016146055,0.5464417567602848,0.5867161514821122,0.6164269627727963,0.6311562860415396,0.648063557960648,0.6115239522285099,0.5565442803472322,0.5125964413273802,0.4782242943649355,0.4499767511038675,0.4372169857454424,0.4560358272629594,0.4387122897815878,0.3943340764785419,0.3951553952654061,0.4364233915709832,0.5046219480755569,0.5703207161401274,0.6529082699546391,0.7196164693174434,0.7994513553429079,0.8556323526843621,0.8003879340879689,0.7155701436483031,0.6305940535599408,0.5456432148671553,0.4684116484705418,0.3993433630760226,0.3155720198927825,0.2680704076753302,0.2955447003858031,0.3591895756143444,0.4258259171537979,0.4987457578949446,No
1,0.1840127013508548,0.1878170045751264,0.2011668876949284,0.2268333355010443,0.2580194658125081,0.3001098110260884,0.3431815970244254,0.397157611308272,0.4437674671063822,0.4863449739464198,0.5255789686863066,0.5563124311204191,0.576292614612921,0.5659758744306913,0.5303421265907748,0.494622313023338,0.4564639948096052,0.4181285139114443,0.3766332154423524,0.339585326491941,0.3033446405906757,0.2636195523501241,0.2320754554215165,0.2112979478203152,0.1883787924360422,0.1751472524207415,0.1556261902734417,0.1400850527387067,0.1256407003834101,0.1012176889637506,0.1026573021564836,0.1588607499882584,0.2186643148386982,0.2713658317572074,0.3347522048799223,0.3986538733184033,0.4580552006340652,0.511068544771561,0.5745708566127354,0.6384851944152032,0.7023983301569356,0.7642304096083383,0.8154782151876896,0.8776294429904969,0.9284764694891008,0.957432165031538,0.933449821106731,0.8749361067366666,0.8110354006646707,0.747121015412437,0.6832066301602033,0.6192923516699427,0.5559349632268424,0.5033114031130772,0.4433779522284453,0.3794761781791957,0.3176697132506065,0.2661490588546411,0.2035968394702743,0.1449197434749516,0.0914608343563898,0.0372498768206117,0.0,0.0082659980461352,0.0226394715104438,0.0513284971206191,0.0850144348587123,0.1136478173409862,0.1378944642455888,0.1509189261310921,0.1317659080341058,0.1088839042877838,0.0873550054804455,0.06275064018017,0.057307253069962,0.0573268084773954,0.0632470544708128,0.0691736358907584,0.067898600631719,0.073373876709601,0.0834798252366315,0.0847712232364439,0.0840267937778564,0.081783259221666,0.0882354223791694,0.1027295188911545,0.1086194784904956,0.120122045720898,0.1283103128178293,0.1363657575975452,0.1364880113561506,0.138308063907802,0.1580950854939873,0.1600739294935094,0.1851976604177689,0.227163224127767,0.2729692966938071,0.3176707664858256,0.3611305559417634,0.4037534037865442,0.4463921384556624,0.4865471696145813,0.5087123074810807,0.4952830085667079,0.4760555553666075,0.4455792113493393,0.4061768778236736,0.3661783656291355,0.3274762841115821,0.2888296879307699,0.2482369349768718,0.2213895978030744,0.1905740490544785,0.1609075283335146,0.1501838820365022,0.1370093612203926,0.1231925553392616,0.1079910883778856,0.0990653273431076,0.0817718029432907,0.0995978205232628,0.1343461514613007,0.1938921288908246,0.257243043061869,0.3093982741842991,0.3697920987742829,0.4336824928537308,0.4924452718866274,0.5459475417390891,0.6096026004963502,0.6733409789993479,0.7277668321496193,0.7855455811115903,0.8493823267939811,0.906883692743969,0.9385180348288508,0.9080953884003988,0.8558703718268945,0.7924225207685947,0.733131931209178,0.6800187814187519,0.6164971551736991,0.5527457526643924,0.4975981715920778,0.4405337345453675,0.3766819716569642,0.3152395684932343,0.2636214680913364,0.2008091282092978,0.1427449642891738,0.089505929781362,0.0427344863543521,0.0382067473588305,0.0522978065227555,0.074074714883181,0.0992211239410028,0.1310137423052277,0.1591124205957315,0.1918911897994828,0.1850511118608686,0.1599580006501741,0.1368304737261896,0.1148178764851755,0.1049047160238649,0.1048093945245698,0.1048093945245645,0.1048099006553955,0.1060327825657214,0.1136885146138171,0.1051881588157743,0.1062152857760985,0.1186350022339457,0.1210620311040071,0.1320084156523449,0.1380878212675376,0.1506055750468857,0.1540511196593277,0.1665894616852621,0.168163424753776,0.1681647618299231,0.1688321612309735,0.1914169305007416,0.2255178453210002,0.2610721791676162,0.3034736037351186,0.3460370398780052,0.3886848595010024,0.434594871127516,0.4784943014645844,0.5123411504439868,0.5315001970687296,0.5266630559652525,0.4932895400250712,0.4604125568360246,0.4167583136615498,0.3744677264747964,0.3413213191946007,0.3093633732940741,0.2774063566181297,0.2459953469435873,0.2176996908610888,0.1978628415813212,0.1843610877799646,0.1712645947639695,0.1673133595952922,0.1543269297505682,0.1416164167295899,0.1700930581505138,0.2261791831509061,0.285184134343774,0.3384313488955115,0.4020206147755298,0.4659349881653223,0.5298493734175573,0.593763758669791,0.6576781439220238,0.7215890702321888,0.7828223731429311,0.8296541712059908,0.868963091830774,0.9286826731045514,0.9768526972825642,1.0,0.9732073974205492,0.9184969085167634,0.8594076577879575,0.806188072589975,0.7426488718375208,0.6787346763843511,0.6155801806985557,0.5635058338838648,0.5057565909588275,0.4653362674978871,0.4068727757479804,0.352541779081744,0.2946908915700148,0.2369077382096729,0.1825584106216329,0.1255769275660436,0.1009464534146236,0.1053940347360167,0.1228222466506694,0.1441007818186785,0.178998803471873,0.2092630741356593,0.2312184456219861,0.2385147891264272,0.2161506633936389,0.190834134310954,0.1614983489340944,0.1362314607071177,0.1127846947844943,0.0946085319911209,0.0697942911578763,0.049438439654887,No
2,0.2999396051748588,0.3374248352733939,0.393897596396064,0.449763679619914,0.5084350645272071,0.6120087159106502,0.7259834797798588,0.8382610723069144,0.9176812360438342,0.9641945593091092,0.9300695021032696,0.8530499885105387,0.7648884742073188,0.6698620669561226,0.5559353645245011,0.4456575350591327,0.3651016661501263,0.2536863947676071,0.1501034016414788,0.0648613661806214,0.0,0.0620392971651009,0.1026918945998884,0.1313915861147476,0.1319719411073379,0.1319720027846411,0.1317088691126819,0.1110735683770611,0.1192253672164387,0.1002597414225663,0.0922635847398058,0.0922635507109452,0.1001538202437535,0.1512392314176631,0.2209315734851848,0.2966634623244744,0.3756254908446363,0.4577583558941036,0.4986711984910181,0.5368176047029225,0.5554915936826541,0.5488741550131673,0.5683131689334537,0.5480971176694709,0.5093847583124811,0.4525178352930821,0.3779005420753361,0.3196366207551442,0.2535954517228758,0.2121217579848,0.2280505528707888,0.2507983864166352,0.2511013659037084,0.2511014764974959,0.2525052930322591,0.286286122259848,0.3206293322567308,0.301740307051439,0.3197243864634487,0.2904377397570012,0.2595298244782826,0.2764923117428344,0.2873814157982011,0.2758898992654943,0.2880500332924907,0.257201780476997,0.2850178387895807,0.3263254848397769,0.3017741135192127,0.3363728543763633,0.3791669385057012,0.4389443460935949,0.4209334817728321,0.4645459138594603,0.4934435729810627,0.5389916086776099,0.5520569181453805,0.5291918088779868,0.5290695757153348,0.5262829692959228,0.4918163113693481,0.4555035421359097,0.4537157708762658,0.4851802076774776,0.4586040845521086,0.4461348182226752,0.4129529831660257,0.398738763231707,0.3709892401462351,0.3861528113131909,0.4031844808189477,0.3984791460803967,0.4368973686953712,0.4945434368209529,0.5914937466951073,0.6860403030764033,0.779894902515073,0.8782812607545818,0.9509767925406728,0.9649330233248676,0.9205590783639545,0.8416189229604951,0.7301878924070087,0.6161978258157284,0.5022073763997934,0.3882246485687721,0.2803639438630672,0.1986525120699918,0.1058202664661616,0.1499072536104631,0.2041897527261165,0.2113696482228269,0.2025783214340766,0.1529762114532511,0.1144451143270766,0.092344511626532,0.1011040579636333,0.1183488381390347,0.0928123239842442,0.098008230645874,0.1213570966883104,0.093821091586113,0.1217619768339197,0.1948392752664114,0.2705921444846879,0.3327432626339499,0.426209889538776,0.5042304848893204,0.5287821509283068,0.5324760478429171,0.5654096497202321,0.5646645776332138,0.5037424870746605,0.4773186191827374,0.4157713096179813,0.3471600136234967,0.2900581555118382,0.234335680798031,0.2114664670350325,0.2127955053257579,0.2453534961545118,0.2510943927961104,0.2511013659035646,0.2517821206160731,0.2793424775700153,0.2851751985994539,0.2525217287688424,0.2511014935117739,0.2507485791475785,0.2262313682626544,0.2114738747455797,0.226958899609996,0.2494530659552403,0.222342857278897,0.2489140349185055,0.2941964376210499,0.3366900363078784,0.3749447695825365,0.4131938686647141,0.4514424488068052,0.4863796294944755,0.4893597667407929,0.489360092141748,0.4893418918724839,0.4777680168581977,0.4479537380212735,0.4157823411856496,0.4026352391252796,0.3714374273104397,0.370228995257337,0.366710011318375,0.3414717333599375,0.3660366050805397,0.3266914808487708,0.3212529055491284,0.3309890113360767,0.3575271806462581,0.4055244682289629,0.4822884853697395,0.5902854408281843,0.6734141194347805,0.7796773494259348,0.8783130673703603,0.9643556007271544,1.0,0.9485143866571556,0.8474563688730106,0.7663040359106015,0.6583453412592242,0.5759632852214853,0.467635683577055,0.3548070472435416,0.2705976960123593,0.1657980703764625,0.0837875119357534,0.0857170980103063,0.0982926634026384,0.1296883702149829,0.130501110362263,0.1002774427065871,0.0922635847395358,0.0922618811698177,0.0892046187112187,0.0567110948984064,0.0525530994415612,0.0525866893169837,0.0704565519656865,0.1575645798171043,0.2175475583943082,0.2821468972694063,0.359051581159771,0.4409419789609163,0.4800954308255907,0.493818110038533,0.5393309258957304,0.5683101160506041,0.5505236861912932,0.4890304806799443,0.4412894930164439,0.3863425255760466,0.3392324282784216,0.2719166504533179,0.2515343440380295,0.2768797731352359,0.2872063954042545,0.2540384041934524,0.2580823575578144,0.2889147422045122,0.2908109473098399,0.2913111152182903,0.3176264890246054,0.3263107625573216,0.2929941802103588,0.2878561464294309,0.2749237659179178,0.2914007954436579,0.3200891934592444,0.3238705230802807,0.3036654840182944,0.3316034291479566,0.3664387224705363,0.4109193469787797,0.4670133583908171,0.5061451947660496,0.5331236542244993,0.5662008307064825,0.594819463673689,0.6084554350256965,0.6081114607373763,0.5799242414797066,0.540042860942564,0.5578009152292047,0.5300955404493584,0.5290698798479694,0.5290698798479667,No
3,0.0639208375434439,0.0729862563483756,0.0862663559046117,0.0967377210890836,0.1141862074172213,0.1457988085133363,0.1792640731756782,0.1992159420128088,0.1990952459254771,0.1794172038227621,0.1600782220813692,0.1435804088100924,0.1194822965026891,0.1106109488538238,0.1200237595247024,0.1205406980664292,0.1205408053208856,0.1205408053208856,0.1208721072843994,0.1300480171716711,0.1339431388554808,0.1338200077505935,0.1263065932313876,0.1206506300038809,0.1269452463541065,0.137242062383212,0.1545933855217138,0.1741646522471853,0.1990956176152449,0.220796169341976,0.2367907310865056,0.2286214098523107,0.2102944922848237,0.18846787213098,0.1672297471579558,0.152363997105394,0.1360452655247055,0.1212070809355441,0.1074172472996655,0.096216458875757,0.0856543072383342,0.0703347893766452,0.0490770781926617,0.0239909794340866,0.0,0.0331069703222084,0.0800628663420948,0.1271584246303931,0.1807888841344316,0.2309613457442023,0.2752614882719246,0.3285720567671677,0.3822308701706731,0.4292486784333165,0.4764332758759799,0.5300775198117789,0.5838088209548276,0.6375401220978762,0.6912714232409249,0.7450027243839745,0.7987340255270237,0.8524653266700719,0.906120879021342,0.952930981005899,0.9914025314148418,1.0,0.9656623636366648,0.915006675122013,0.8716630374298671,0.8187317410988557,0.7650006621257535,0.7112693609827048,0.657541263276737,0.6060798544597823,0.5627248295099556,0.5097636259714351,0.4560325240152347,0.402301222872186,0.3485701190007271,0.295606960677977,0.2522737951311429,0.2007926485278366,0.1470945412339479,0.0986742226883956,0.069825912318779,0.0684335856573659,0.0795446070037315,0.0911240677702145,0.1156827779161915,0.1483307164693585,0.1748014016565018,0.1872879329437964,0.1814166096312148,0.1544348144073795,0.1413414758158362,0.1203672543851879,0.1077840555462286,0.1071212514885942,0.1071211365731041,0.1071211365731041,0.1071323324053077,0.1112146459360006,0.1202590137589716,0.1205080131984783,0.1156397598368093,0.1177719657492568,0.1205341742822692,0.1205408053208771,0.1206327937419122,0.1297674442799397,0.1484911889851781,0.1708737739241073,0.1895002064517332,0.2118925596591996,0.2225427114177054,0.2141741690827765,0.2027369522166102,0.1893486420098962,0.1647620083900278,0.1402634494509773,0.1284143914755997,0.11804603896026,0.1076168578245453,0.1015237288187478,0.090968260794797,0.070830226225266,0.0460978425020277,0.0223167839426432,0.0637607714309793,0.1071716435739711,0.1582777176188621,0.211479190512124,0.2549253344466886,0.306051919403159,0.3597792920949181,0.4135105932379672,0.4671300582195004,0.5130764599991129,0.5613192151315407,0.6150161290623881,0.6687473804087247,0.7219029807960524,0.7653305290194456,0.8165254453760151,0.8701283143470575,0.9159916367366644,0.9616036339154984,0.9759581964602968,0.9469952151194638,0.8950389910889753,0.841308582456227,0.7875772813131783,0.7338459801701296,0.6801146790270809,0.6263833778840318,0.572652735230232,0.5200160263315761,0.4769808476138895,0.4248769840239563,0.3711465409165626,0.3174233644178752,0.2667265032054695,0.2229224606997935,0.1696495031379421,0.1190588839132513,0.0866253660748772,0.0882357973145926,0.0808818590590849,0.08925619978171,0.1071292409101216,0.1338635821349858,0.1689338445770771,0.1973695130701918,0.2123938953814659,0.1951023813527417,0.1728064131683329,0.1682706945639838,0.1526856457603873,0.1281408457408304,0.1206208880943084,0.1205708806136356,0.1256220390680669,0.1337841674262172,0.1341476014177072,0.1424097087710722,0.1473516055600865,0.1474122184084096,0.1524639909092378,0.1541684547213684,0.1474568917578103,0.147380384138946,0.1482091569109833,0.1612390392578704,0.1830897972452723,0.2082888124082247,0.2309597775520386,0.2411482935622508,0.2409144520982216,0.2300668309188247,0.2078968432237289,0.1856125292528498,0.1706819814667097,0.1512754876241757,0.1406393708185955,0.1272683252492901,0.1139233704010758,0.1057406446696735,0.0910528087575586,0.0657348332845133,0.0455307818661174,0.0766810137874078,0.1224333951854266,0.1759680259230243,0.2242293126932861,0.2702055216124241,0.3237830041597043,0.377513964386801,0.4302907401456832,0.4735769609641775,0.5252911959614979,0.5790198411271743,0.6327507822016885,0.685502635287647,0.7287795582505558,0.7805279589479257,0.8342566780946439,0.8879825652367166,0.9386192483262108,0.96214539800622,0.940766680935932,0.8912596881696015,0.8471607305200792,0.7967265319116024,0.7430029306097823,0.6892716294667336,0.6355404317476241,0.5823153796025329,0.5382532621777982,0.4877586627234653,0.4340347924992627,0.3803054075231697,0.3282495155253548,0.2850562732627151,0.2325287242330738,0.1788165354164324,0.1290987674504458,0.0871190817658704,0.0794219289348716,0.0931139860377241,0.0967193504934069,0.1098763922235752,0.1336716817110534,0.1719046162242627,0.2058787148258658,0.2259770434847716,No
4,0.0804097064328557,0.1020127969437494,0.1041522592925079,0.0904035458816849,0.0741722488216001,0.0658170578032191,0.0515173811927844,0.0562370897759194,0.0454897865177366,0.040662091532392,0.0361491802623494,0.0272217263113319,0.0395991986732884,0.0356523421096204,0.0257196426159653,0.0428287268734162,0.0566502359420191,0.0677418596693835,0.0749871689358245,0.1011526335035495,0.1356104835288705,0.1627068307357793,0.1681551779688868,0.1550904813967317,0.1389342078688313,0.1141991243295454,0.0803254603384902,0.0599171656071426,0.0478177964485073,0.0266338352919137,0.0240591101976335,0.0125523910262046,0.0180955895869461,0.0145168491902678,0.0168305776166071,0.0464905014878125,0.0868834523179189,0.1317505641676404,0.1806293123297329,0.2306188079599347,0.2858437507696414,0.3339249396551991,0.3929195524854809,0.4524105979252861,0.5107176932497826,0.5575475986695699,0.6148486005857756,0.6743386099306488,0.7338296553704544,0.793309846234604,0.8483686741264038,0.8966999920136094,0.9548644550766744,0.9904774967075284,0.9899411006789944,0.945000423229243,0.8927704374549972,0.8421302607923233,0.782755694854778,0.7232646494149728,0.6639132915542025,0.6138201795484504,0.560792023458093,0.5013366374096089,0.4418455919698032,0.3823545465299971,0.3228635010901919,0.2633724556503862,0.2038820580253606,0.1458400868240037,0.0992495158058659,0.0438569208692407,0.0123225640403985,0.0108785006600102,0.025226848478534,0.0502727808411664,0.0720244964937957,0.0731351726446605,0.0843044588988068,0.0745686690616489,0.0507890934613621,0.030684466205189,0.0362182178777437,0.0406454208616193,0.0406414031151336,0.0352510437213604,0.0278939399844109,0.0399374216691628,0.0406581668394268,0.0406885902302351,0.0466631457253816,0.0565643753097924,0.0648981835445638,0.0902326278181573,0.1168672472456222,0.1537634694628851,0.1827093100391885,0.1837786650693376,0.168332004482981,0.1480796860159139,0.1205594294186784,0.0930606495224695,0.0752733169673054,0.0722864610767342,0.0599373889637027,0.0427811696437241,0.0406493450269831,0.0367180000714575,0.0268008953644605,0.0447451551779609,0.0736555447564861,0.1065294742050451,0.1618411361202421,0.208497520077473,0.265569147799308,0.31262969129101,0.3668251546861185,0.4029341149651548,0.4507588095231116,0.4999005300145764,0.5591297354636242,0.6186207809034299,0.6781118263432355,0.7376028717830412,0.7970939172228473,0.856584962662652,0.9160727138519044,0.9719730468287566,1.0,0.982419290821528,0.9348135456260064,0.8818915774507161,0.8224373541279659,0.7630620794140976,0.712164072987763,0.6599556201528336,0.6005093421226011,0.5410182966827954,0.4815332997083255,0.4248839034014735,0.377821577908231,0.3190902846774324,0.259602672979061,0.2026036202063168,0.1556767550704338,0.0985030301762059,0.0528691703891914,0.0295544080131286,0.0357995824442545,0.0276354191172232,0.053662208125043,0.0783515569290136,0.0886017086601387,0.0823376840098277,0.072885639830027,0.0681313722673335,0.0456900405410709,0.0421376808733646,0.0544479397146213,0.0473388132677454,0.055759034478096,0.054643532627391,0.0421071950436915,0.0507581287586513,0.0689822851653176,0.0691565366630029,0.0671666476440306,0.0588300413395019,0.0750715015971223,0.0997752984676858,0.1294751151992352,0.1600593973938942,0.1831565091218934,0.205925354582988,0.214186335483161,0.1908879368743528,0.1651516928623704,0.1388916438989693,0.1215641177664466,0.0965744547935627,0.0822281375032534,0.0853209949370068,0.0797321036891229,0.0727719756323095,0.0727306963999363,0.0730128276601704,0.0867679439840096,0.1197544112490631,0.1594055877842075,0.206391567869034,0.2595311072562336,0.3090963328194065,0.3683579864116137,0.421386142501972,0.4714792545077229,0.5308306123684914,0.5903216578082979,0.649812703248104,0.7092552993135102,0.7611323827473093,0.8123495960116731,0.8684373507154142,0.9033954204881494,0.94312609990462,0.9498336181859336,0.905463204282777,0.8460828436472925,0.786592094526549,0.7278872730240686,0.6809566775460891,0.6241523875205499,0.5646637862021233,0.5051736092837102,0.4475528206233861,0.4008254680942738,0.3427356188846975,0.283256708181383,0.2279950129771673,0.1799412346150841,0.1231947717301737,0.0789064358780402,0.0673532698249128,0.0772850063576102,0.0801983108662955,0.0941032646920319,0.1180397426277206,0.1208200557761096,0.1144769786474557,0.0903106612046378,0.0781187022385609,0.0727541471710133,0.072730696399899,0.072729175871073,0.0704724646250136,0.0610085328249043,0.0717933262089371,0.0622230529339247,0.056719527718116,0.0566945266460239,0.0570850948738623,0.069165760819764,0.0907861485436405,0.1206535444117573,0.1495554993362273,0.1643399501426912,0.1613180746777671,0.1614755249261263,0.1496696847559913,0.1200868324982575,0.0857427575686826,0.056796918600722,0.0416128124357944,0.0293543901294102,0.0028363024404569,0.0,No
5,0.7852025645712595,0.857990019905515,0.9344605227636084,0.9895275038387364,1.0000000000000004,0.9538805299729208,0.8817987524272621,0.8033164173454757,0.7248118248049047,0.6465039591164792,0.5805702133696489,0.5102807100872169,0.4318214705017027,0.3535017308388704,0.2871898478174084,0.2173755977672362,0.1480924144129156,0.0846479632934928,0.0444353348329684,0.0350332727557076,0.0308677397329817,0.0281692958037802,0.0601043212676795,0.1081316084355719,0.1554861243857068,0.1905084210713528,0.2052285148438013,0.179247602691619,0.1584170656766574,0.1580708664573662,0.1238454742813939,0.0943193671555886,0.0826645516589481,0.0972359525825088,0.103065844485918,0.1030836922584148,0.1049921779512481,0.1220399789424893,0.1376290999479268,0.1451090297457518,0.1451218762040693,0.139291984300653,0.1245685651548069,0.1231328952997397,0.1086622020033947,0.1302857493309077,0.1605529681969688,0.1877314899389035,0.2174375118041278,0.2567737987506699,0.3016611600316414,0.3349986190336782,0.3562033283616519,0.3733058340762802,0.3668792474218345,0.3300352064028216,0.2797261675878406,0.2310090598033971,0.1973283869535937,0.1606193818173449,0.1325713900035667,0.0960384564548109,0.0787850492098702,0.0503961273735793,0.0483140182316512,0.0596870918821808,0.0512313237624861,0.1095223480971601,0.18789506539362,0.2641336979636048,0.3257292253410728,0.402383111135522,0.4808868408394779,0.5593859518297952,0.6329226514127222,0.6961213024859823,0.7738771951426782,0.8519244738500684,0.915322002640123,0.9612882282521809,0.9510955436232416,0.8848727241949708,0.8229270394626638,0.7516425227745711,0.7049681068263953,0.6380551654209263,0.5730750165407987,0.4949055180788586,0.416400925538289,0.3378963329977189,0.2594017080191366,0.185072967586557,0.1227509386252863,0.0577256719662053,0.0211610177654018,0.0189411376115877,0.013375530342512,0.0227903883745819,0.0684434970366649,0.1166497506838877,0.1643611876895443,0.195528698451147,0.2065486838552233,0.1899391683078977,0.1844720567959252,0.1690284011748888,0.1844833910704082,0.2027789118993683,0.191321778499637,0.1871998161022481,0.1869643531161169,0.17594665649256,0.1851647603754496,0.2003093125114348,0.1938654586808632,0.1872213633753072,0.18499365946737,0.1666885226390069,0.144460059320032,0.1253050422343467,0.1253343046674606,0.1489266912730982,0.1792884324361296,0.2173364365633912,0.2557038861541834,0.2866912731145024,0.3297662053772154,0.3624602904481282,0.376285067824202,0.3753863497282657,0.3487725431886082,0.3012556570778399,0.2536080466387114,0.2208034587947414,0.1843152740277145,0.1536931243322512,0.1259963730211808,0.1018021946977354,0.0653498022973186,0.0508170891201458,0.0525639530478514,0.055851418074305,0.0894295709994215,0.1666861512916653,0.2332125085140841,0.3029276270072363,0.3813542324397381,0.4598411866207796,0.5322758487696224,0.5963587841727591,0.6743445867429401,0.7521361319037223,0.814843919032088,0.8872430508908828,0.9359662184034172,0.9300734139961792,0.8682785690664265,0.8030118782053033,0.7248779379383867,0.6548135160965667,0.5886177812585864,0.5103375660421126,0.4363396335686165,0.3736318464402486,0.2958564105935575,0.2228509019973157,0.1593714155508716,0.0822963874639932,0.0270845995836039,0.0,0.0104737451505454,0.0264036832635081,0.0691861398838211,0.1166903479936172,0.1525938834231999,0.1901341368723295,0.2074297482342801,0.1982294735689609,0.1723991746044388,0.1461671107952185,0.1161581511371219,0.119427822959047,0.1061016625719659,0.1030861285027984,0.1032963635619412,0.1156052212645279,0.1241046022160978,0.1335419810572511,0.1449784160270923,0.1451157344517901,0.1379626107120373,0.1243448641186732,0.1144640214433572,0.1032046987460098,0.1034529956423218,0.1223196556519292,0.1646208340227701,0.2028826597813839,0.2336028420961295,0.2644231448421208,0.2954100636881818,0.3098775232185997,0.2931192807842291,0.271576849576264,0.2329301898902556,0.2013203866557535,0.1631480269783307,0.1251002415113165,0.1056442314423939,0.0907071957183429,0.0800790439463483,0.063888169614052,0.0765964774663792,0.0590253582753979,0.067405406421801,0.1416363235438771,0.2197126852921513,0.2837959009208242,0.3561397935988983,0.4346252059493247,0.5131297984898966,0.5913604068291103,0.6569525647501444,0.7276579254373701,0.806120152793095,0.884379082846769,0.946639873769778,0.955922474135424,0.9063962292541948,0.8443261291664546,0.7710675721036053,0.69272997208297,0.6256618145122435,0.5565284876791652,0.4780831053914167,0.4003846902130914,0.3374071102222999,0.2636465072785463,0.1932666915235179,0.1275101021241136,0.0600294862173518,0.0066851652558943,0.0037503679660653,0.0119282878580149,0.0076986724493446,0.0435875642394627,0.0901248732478925,0.1411807899712718,0.1821040244922804,0.205980910820815,0.1827749952236157,0.14422296079944,0.113419143763243,0.0813117593119314,0.0502129386645915,No
6,0.4984317789443393,0.5233195998814986,0.5378114216567762,0.5591339873348726,0.5443617162710344,0.5154448877970825,0.4796202823169651,0.4438887318935576,0.4216700349126476,0.4082955472628171,0.3830117597339488,0.3763507043480225,0.3626596790997758,0.3579296770527254,0.3479991268930167,0.3336147092000154,0.2862418266254365,0.2274542543461999,0.1687524233275814,0.1220773807212189,0.0872985135158277,0.0316258620920617,0.0047573102434399,3.520682457036628e-05,0.0,0.0079265191370927,0.0221961463540241,0.0476295178325996,0.0879388171045825,0.131424035279954,0.1619244803007644,0.2075772779232396,0.2509148308306876,0.2861134684399053,0.3192168008488654,0.339055108167436,0.3555817150081948,0.3761869043864632,0.367387588347372,0.3580893683265516,0.3583386343726134,0.3720381033645235,0.3769179206378035,0.3860244063362166,0.3955615743533571,0.3872110620617399,0.3772368516232793,0.3851276151620837,0.3773866147510758,0.3768327423562514,0.3765861081009052,0.3648298194803407,0.3733202508621378,0.3685461484726571,0.3580796319831285,0.3481298803113106,0.345855067628837,0.357901645470033,0.3666045584191884,0.3923449213238044,0.4149584857430661,0.4341953424664053,0.4607157069938501,0.4604116881976487,0.4250532249213123,0.3970962414670431,0.3789056695656883,0.3701965408291108,0.3426855409367304,0.3189060907694796,0.3080107144254169,0.3391706520648045,0.3832869867731059,0.4359231281753772,0.4942504665232934,0.5389871005572804,0.5935327043508822,0.6523497804692782,0.71115231228951,0.7643889934378869,0.8102877030499029,0.8683099165036454,0.8850517575453765,0.8302504530547945,0.7840974670546204,0.7311777283426149,0.6754679278679117,0.6313453957129203,0.5735775652778661,0.514757524879514,0.4570439555331718,0.4215342926659975,0.405917616264047,0.3786406254927112,0.3781204511487899,0.3930702915904076,0.3974158540995347,0.4127606858090025,0.4031402201808789,0.3984330459278782,0.4136391150079497,0.4145175562881267,0.4116397757433572,0.3983130958820804,0.4183510421795158,0.4461212017313607,0.4657510084798937,0.4793503033696948,0.5130570703901487,0.5378021440316822,0.5618581120705741,0.5533354031572557,0.5185025002561812,0.4889812933973596,0.4595439005407908,0.434295927029559,0.4104192126490233,0.3968610690220915,0.4122694737813925,0.4353598710720847,0.4572707608503936,0.4707378583598758,0.4768112700801001,0.4731576035620652,0.4711281260220659,0.480889034221617,0.5053239939949883,0.5193174703454888,0.5275338811312351,0.5275782855373179,0.5279031528020544,0.5364455806405926,0.5279124572874663,0.5275772224851969,0.5250823804578495,0.5020175218347593,0.4900608471274368,0.4860242442419742,0.4717279847583602,0.4709433548316997,0.4590949044544059,0.4519225335242423,0.4390216929724877,0.4305761550747009,0.4208097730754749,0.432946796320719,0.435246199175507,0.4461428914742038,0.4362298035295491,0.4513812649655313,0.4651978279659117,0.4936713313902876,0.5190149762096827,0.5291695012774267,0.5525123855399006,0.5768354986541442,0.5437040760609806,0.5094214714466858,0.4751570950237505,0.4511331327677177,0.43458921431835,0.4206786241342723,0.3966501371867563,0.4047215587644457,0.4555673688467352,0.5004202384106446,0.5547381680214731,0.6135549715624022,0.6723747302973715,0.7296887947162722,0.7733231946084715,0.8299937574412928,0.8888133776160498,0.9476291835399376,1.0,0.9840805641820434,0.9370700263683158,0.8784680952408777,0.8204467058510367,0.7765525736106826,0.7288940263467505,0.6974917898780113,0.6427112669766686,0.5992524444592355,0.5448582717150106,0.504139576680831,0.4656326504082928,0.4412269504024668,0.4126017871705576,0.3908251409255969,0.3771535322055741,0.3768327423562665,0.3768327423562665,0.3768327423562669,0.3760878671179561,0.3614359767486803,0.3647533557614482,0.3844777995401274,0.4100399558900296,0.4243231666024059,0.4497043719992986,0.4727656353884431,0.496297095965144,0.5271484973927367,0.5580725889200195,0.5793862436776269,0.6011325634002289,0.6144362760812645,0.5934728472351787,0.5558304047379776,0.5193493406029375,0.4929084335254399,0.4697202894528232,0.4366220571625065,0.414897647700041,0.4145191281515346,0.4146716599782634,0.4291888511613462,0.4516153416593824,0.4538587973668404,0.4692021792851508,0.4710483706655552,0.471515607617941,0.4853058629777775,0.4768634627602059,0.4683221731925111,0.4443212548154793,0.4186427645761621,0.4103298300639211,0.3842490273767756,0.3434552388783376,0.3190087554511933,0.3032084577314933,0.3009688480534507,0.2842841083828666,0.2648535053638818,0.2636903166487614,0.2519992337488239,0.2168846284410195,0.2057138744509528,0.1833271327655827,0.1559867650800699,0.1361716443763359,0.1138684470157387,0.0950861272441696,0.0945071655719638,0.1082340318028958,0.1351194156386768,0.1539262373336298,0.1697950649556072,0.1899209810277078,0.2244008787567253,0.2670869037333521,0.2950009060002725,0.3014489489267138,No
7,0.2235145747022144,0.2313471380391409,0.228684821998967,0.2180369825397896,0.1946511375242274,0.1917687608620997,0.1930424339172001,0.2109628213905008,0.1966888730146867,0.2043224068957241,0.2151298744479208,0.2274917587080511,0.2605743800350142,0.3032323669417271,0.3491651821749477,0.3966652594871771,0.4460987439493831,0.4923589684172498,0.5346208649295319,0.5340031828061287,0.51446215342669,0.4893883449509193,0.4622048066897459,0.4162304164239385,0.3733846529518216,0.3445059154797509,0.3178430058350252,0.291933486357034,0.2794465241464974,0.2618535791614005,0.2442359516591272,0.2384978902372281,0.2350771140656085,0.208753869455422,0.160244655230493,0.109504632685859,0.1546181744006256,0.2198082267126451,0.2899506149375614,0.3690700435454892,0.4335494321657034,0.5048615403625147,0.5823266818589969,0.642664995504143,0.7181512283565592,0.7786941726547347,0.8550576563732992,0.9203289016134546,0.953668165986322,0.9136497453472652,0.8541745265824421,0.7804782753156836,0.7010657119544357,0.6274122641171767,0.5649311745618135,0.4861284277271833,0.407193509609657,0.343929085237594,0.271230162236193,0.2035224938609343,0.1918701201609378,0.2023584893336987,0.1986734430105317,0.2129676354152558,0.2633059672157647,0.3133092826039161,0.3426546087068765,0.3516953032203487,0.3210758978910899,0.3212074243996503,0.3305415360896391,0.3030889988287946,0.2633209703091732,0.2432809813579379,0.2384916212658709,0.2336644461548234,0.2036138256124244,0.2083411651118902,0.1930488611964245,0.1975122469455286,0.2145018061297934,0.2151451838256659,0.2218293334501693,0.2361771083804753,0.2182556723291959,0.230304539499965,0.2314740483944501,0.2154266814978358,0.209482070838205,0.2049384396241338,0.2105339371899206,0.2038056528254159,0.2153344115923365,0.2316556437032577,0.2526335164589977,0.2911282333176737,0.3383429424002218,0.3911077899871396,0.4325967610835546,0.4501140967954828,0.4679185271316424,0.4451056453991162,0.4055238812276194,0.3654929636498591,0.3167398537656654,0.27578870827706,0.245409433712235,0.2004148953931448,0.1914201334101495,0.1759400380748639,0.1505769429320702,0.1315097038433132,0.1357108501362525,0.1388328442644346,0.1071039666136361,0.0934855162789931,0.0527881774317275,0.0,0.0240385411163379,0.0892068035121531,0.1683998353233526,0.2430476775641041,0.3046650263578536,0.3831989776922042,0.4502176278975618,0.518916256294049,0.5982501468619246,0.6709964957739434,0.7342604979911878,0.8115974367585377,0.8714268306103419,0.9132029791277372,0.8891080520435564,0.830609831828129,0.752460396144575,0.6776197643018254,0.6160039671768756,0.5375246823276916,0.4580940254831143,0.3787453532308809,0.3129234003179091,0.2645748086715533,0.1905019690442011,0.1297991541070362,0.0635990773456103,0.0668170954340174,0.074929309670952,0.081963247796867,0.1190083863428546,0.169858082864398,0.2197803107391815,0.2381247019234345,0.2383917631551533,0.2243975173364205,0.1947204532946389,0.1871469924951991,0.1618879875274572,0.1287114479326865,0.1322731913233701,0.1634972211081469,0.1575868776698943,0.1464511171138292,0.1615919095888505,0.1463249454053339,0.1510368730894686,0.182977700498097,0.1919159506917376,0.2050187854641487,0.1964495137124511,0.1836114699946973,0.1686542895143148,0.168405747579281,0.1684057475792784,0.1680420218270688,0.1532059374198788,0.145064272546771,0.145059415677784,0.1520480660961416,0.1852611367026697,0.2181002242238086,0.276500971184018,0.3192661843742557,0.3677528926030855,0.4101965221535106,0.449664299503083,0.470186432587715,0.4501712949118719,0.4171991143233393,0.3814599349221779,0.3401016005835595,0.3053697846718033,0.2719294432067944,0.2418097120821305,0.214601349186664,0.1940175791046408,0.1741492463329716,0.166068396113165,0.1469657059435447,0.1450001905954443,0.1367943783315306,0.1050064088731841,0.047777525377703,0.0738260210013765,0.1497202592617248,0.2275484366024223,0.2880930568496689,0.3646492819524956,0.4437725082598875,0.5071188902456596,0.5796019848788037,0.658925723101234,0.7273509448734075,0.7946058134414633,0.8737999351887344,0.9407974165295538,0.9977351294241804,1.0,0.9513135954003592,0.878593641607325,0.7992597510394495,0.7305611226429605,0.6635423141295451,0.5842485981184575,0.5048210293252673,0.4282648042224428,0.3677201839751931,0.2898875064807931,0.2104575356377873,0.1332672571232405,0.1047998080056999,0.1291903439443098,0.137707251074171,0.1242388281386284,0.1726791342976636,0.2277292618659925,0.2617721750315605,0.2828979361197423,0.2685529853940589,0.2600062514455192,0.2331258530399123,0.2045401025445117,0.1849313057572557,0.1686115511881767,0.1601004291988021,0.1796650034795259,0.179589775452817,0.1538182066974953,0.1743468139079356,0.191227523349629,0.18360634927881,0.1715060309678842,0.1829912695287565,0.1754097601447211,0.1912719139781953,0.1917676527052418,No
8,0.0349946746244129,0.0276210373181262,0.0275617630545754,0.0275669100379523,0.0316097861389201,0.0549600926022293,0.0671835785601957,0.0895516171976282,0.1246455798861778,0.1600449702194137,0.20240680154882,0.2387727245133937,0.24567923711529,0.2321548338925771,0.2114637337946012,0.1826543530754856,0.1563238204064458,0.1286582042049953,0.1010660139787957,0.0790829310456229,0.064742908181187,0.0465320701934452,0.0443891761552137,0.0392958431541221,0.0236452350859392,0.0111461747260022,0.0111478028678897,0.0293037840373049,0.0826572986171618,0.1435761927743004,0.1941990788002963,0.2571293556861271,0.3209318695127687,0.3814527893876032,0.4324734145676197,0.4955143104492898,0.5593213752732527,0.6231285655599827,0.6869332029639561,0.748352340152076,0.7987761840413636,0.8615144583332413,0.9252819383426608,0.9814221105570438,1.0,0.9671972436238748,0.9115053834196938,0.8586451125711942,0.7951305777833251,0.7315181608216728,0.6782000513008781,0.6205196806024809,0.5567453085846528,0.4929381182979226,0.4291539635736372,0.3713015727994642,0.3181047372313648,0.2545528701148893,0.1907872836584703,0.1335197247348745,0.079798696977182,0.0238972188257013,0.0225709466248247,0.0476121162903435,0.0836740887907607,0.1075147198723596,0.1232688726583091,0.124704210142287,0.1052790655953663,0.0882076721106197,0.0595772983180196,0.0447349637121874,0.0444052760183386,0.0444052760183342,0.0444052760183302,0.0444052760183253,0.0444052760183213,0.0444052760183164,0.0444052760183124,0.04473988572862,0.0560632355377421,0.0639729768438646,0.0777264092436054,0.0975823368971133,0.1387258230678809,0.1765010814048278,0.2126492572944958,0.2487733717313243,0.2758496165557975,0.2749021534462885,0.253558493690786,0.2277116007180746,0.1992547659235475,0.1674813703730899,0.1412338126765715,0.1149821690134325,0.0932727360286591,0.067877275311607,0.0606304091902076,0.0464245953150488,0.0288472507285768,0.0159654945421459,0.0107381819239078,0.0110244610174556,0.0264860716089057,0.077556054378685,0.1393432840620914,0.1896388469960004,0.2519778091485229,0.3157839937128806,0.3794804421671083,0.4340448906637713,0.4904371266001761,0.5541692418959117,0.6179763394982869,0.6812554335830687,0.7324507805746214,0.7925648845785251,0.8563587568971132,0.9174132602024718,0.949531628130552,0.9199111527210472,0.8666192303423408,0.821612082301173,0.780320047912149,0.7402519117956379,0.693227912711559,0.6535877071126928,0.5935353421986056,0.5432259338927166,0.4812455199372065,0.4174395484243396,0.3537260282178724,0.2978565269829332,0.242791529003985,0.179073982052381,0.120621544911136,0.0680527112958988,0.0138868475520244,0.0,0.0280153087549526,0.0636245275041291,0.0856461678483393,0.1111341865411859,0.1273310997762675,0.116094005070201,0.091292180040416,0.0740063758405327,0.049721802159147,0.0335762681318141,0.0289870336118438,0.0422504250737412,0.0405609339217223,0.0280445890184339,0.0321043645289766,0.0433160859453449,0.0316645593505544,0.03351060891588,0.0441763547802986,0.0447681046044294,0.0602123333025361,0.0915674263868058,0.1239738913011292,0.162916407078494,0.2009845777333048,0.2309367884342288,0.244373762188685,0.2305829155826648,0.2089778729785174,0.1841500668983942,0.1544479534986447,0.1295398070737903,0.1054157263604813,0.0889329373745808,0.0667812678711556,0.0459007545915262,0.0432313993568764,0.0269588606393909,0.0157640966899079,0.017786539145999,0.0107735769505326,0.0129824772057784,0.0425116839794057,0.1023764529758524,0.1650738631756287,0.215705979474241,0.2769468332435418,0.3407520246944977,0.4045592149812265,0.4683358610759018,0.5261763566346724,0.5793576623911001,0.6429444874130725,0.706751653450989,0.7705587294988634,0.8337511913902271,0.8848007896881014,0.943626765998141,0.9811763767342176,0.9611630262312824,0.9025547382804984,0.8516796737128782,0.7885911704536177,0.7247841202711438,0.6609773940085666,0.5980641354297873,0.5475024400428707,0.4863957262680687,0.422591681801379,0.3587845039084878,0.2951472111741839,0.2414209222152536,0.1841675969478364,0.1207902673308933,0.0684274084305793,0.0137625730786892,0.0066123866168918,0.0225610137928469,0.0649678377418063,0.0971096737329939,0.1131048868656501,0.1262259278597599,0.1112235137112613,0.0915865100640771,0.0709298614746649,0.0473636907043157,0.0481294465073416,0.0601595989091041,0.0492999314359754,0.0444830409656797,0.0528384359494316,0.0606145707513197,0.0489673736158575,0.0542685355116714,0.0520601529300059,0.0595852831021566,0.0614842476364589,0.071930468772698,0.0800704971191232,0.1041151825982371,0.1387426261542632,0.1761698302643664,0.2087535876530979,0.2476557658171985,0.274993873714163,0.2649287488851479,0.247622774488188,0.2312365798855293,0.2034285757077136,0.1641961074939693,0.1419143441419619,0.1246561475734826,0.1003569864150439,0.0842162894250617,0.0781243621890186,No
9,0.1410115034026424,0.1383485645262281,0.1066103966867602,0.107986183652073,0.1114773833909477,0.0831232327062498,0.0936093578321659,0.133021511481274,0.1710597935409947,0.2285331722928365,0.2907776311510015,0.3465526625735919,0.4139788151545751,0.4757600842091993,0.5366511844154318,0.6081807304256537,0.6684170286918523,0.7309016339133776,0.8025920459957727,0.8739122665886794,0.930586860204342,0.9827437268743932,1.0000000000000004,0.9603087957019372,0.889264636826407,0.8175633628661463,0.7542693582717734,0.6948207260899069,0.6232325115487325,0.551502046291712,0.4864212728283608,0.4287010013025893,0.3572003862710589,0.2855275294203871,0.2259625515843599,0.1920517818211382,0.1376602956202077,0.099377991517104,0.0548630350945895,0.0358097081543062,0.0220854011407238,0.0149844313794074,0.0197920064144629,0.0549770537490514,0.0878608735871679,0.1181966714055651,0.1562127970850202,0.1791342101615174,0.1540684405177144,0.140704912935059,0.1260123164768369,0.1098152570050969,0.1160394731652236,0.1187262483511237,0.1034822674041744,0.1170797713612028,0.1199512575182364,0.1121038137387548,0.0991971098797264,0.1003593659936794,0.1172653126535481,0.1179488375351556,0.1011153273450209,0.1138197642448823,0.1313308987110035,0.1366329203905634,0.120809274336453,0.1165988262767019,0.1048302102018947,0.1363709754381603,0.1410080585639943,0.1410080544233709,0.1371874684909686,0.1209467691889241,0.1199143298121279,0.1124732577028297,0.1162861432891113,0.1005146482333674,0.1091721322708472,0.1191386498973359,0.1131105244074515,0.1426570734629684,0.1702862719795947,0.2113584634217455,0.2587870460025918,0.3000605957576012,0.3431931254153912,0.3825325538144364,0.4348561160856192,0.4690221293949097,0.4641756502551644,0.4409461203623395,0.4219538081364624,0.3849343172524779,0.33752200359626,0.2944930036936459,0.258377682333279,0.2170373426586747,0.1952844356129972,0.1664012285108254,0.1479659856708397,0.1252490091314966,0.120014240805705,0.1192479041264151,0.1031594849920161,0.0990214955716299,0.1098345335604573,0.1558295573077575,0.2098156662639132,0.2643563876397308,0.3246262544261915,0.3954543113551692,0.4513464142418457,0.5141644481490211,0.5546319358552267,0.6202735332570777,0.6920268208106033,0.7637663910230263,0.8278058028893214,0.8863893530604154,0.9427959773456408,0.9732847468888032,0.9514404531401062,0.9024419878808368,0.835293420827385,0.7637358280939757,0.704021768780644,0.6410040246541464,0.5692681132653163,0.4975868658923699,0.4357851913916826,0.3748842998668293,0.3033771818024102,0.243128377241014,0.1813219048609236,0.1253231458568078,0.0606860088890264,0.0112173946210258,0.0034478578402907,0.0,0.0026553683597545,0.0164853904448869,0.0500505995287472,0.0809620311200922,0.098334660507922,0.0971365316083416,0.0773304980809697,0.0579888426437649,0.043786822613077,0.0359934719323642,0.0401322154163721,0.0555350944175452,0.0403346330564131,0.037447309609448,0.0531562611507978,0.0329610916814901,0.0281473015076163,0.0450374474449741,0.0539923670697155,0.0370038572883086,0.0241957980873497,0.0332141402425589,0.0359646971717473,0.0362429922054392,0.0505411558034234,0.0496161347347436,0.0361971552527147,0.0359680367950416,0.0359680254168517,0.0355966897744886,0.0233949795374548,0.0289456977311504,0.0169978149087279,0.0332206565066712,0.0455403257986133,0.0644136386700173,0.1048867945378737,0.1326420088478581,0.1830315316800863,0.2343405455026332,0.2721378300454806,0.3194177596280476,0.3633893324728308,0.4046941093756371,0.414094673693381,0.4130066615258281,0.3830434299360696,0.3420035024079211,0.2981611258777334,0.2621061439537397,0.2262220039017286,0.1920878944643145,0.1672649314261658,0.144851062736834,0.1269518609472082,0.1098568135654018,0.100390986490225,0.116209918111819,0.1038730376420997,0.1138767320338716,0.1147876729254382,0.1374464450123214,0.1899553471667654,0.2444192472211939,0.305115076261726,0.3679906303922053,0.4277512006255408,0.4986608131577261,0.5549212658709184,0.6218384045642495,0.6935794369987671,0.7596562082788307,0.8165927620235967,0.8826719858490555,0.922493600608369,0.9241964182723073,0.8750042287929198,0.8203084873628153,0.7496985147874855,0.6779665344130761,0.6127829808309824,0.5551620935976214,0.4836665715608386,0.4119065190451296,0.3416159312113405,0.2865098477715229,0.2176538746356566,0.1520025682329548,0.0978795245154673,0.0488104550844723,0.0169974592056632,0.0017575442766055,0.013616351875505,0.029908184483506,0.0587995280719231,0.0842498482286746,0.1253189705891477,0.1517555289840544,0.174240103513017,0.163171356522402,0.1274266366477419,0.1033947155327901,0.1004632131522531,0.1131710389350231,0.0998136844985526,0.0989951584541404,0.0989951584541382,0.0989951584541368,0.0989951584541359,0.0989951584541337,0.0989951584541319,0.0989951584541302,0.0989961721473426,0.1023682544824615,0.1188009027983616,No
10,0.4816051963705861,0.5377164701939967,0.5999102995528971,0.6488340782223152,0.7070969354850645,0.7697907744132997,0.8313717397804212,0.8793962141623721,0.939173348539661,0.9997128561435162,1.0000000000000004,0.9410494314453208,0.8950781136041264,0.8585637583353969,0.8075371695896227,0.74490827235284,0.6865704438126894,0.6377122693485582,0.5755200226798554,0.514034623688504,0.4665678799629482,0.4152916854035,0.3834124726377808,0.3621951926953506,0.3521621909428076,0.3433525287509487,0.3426661699642026,0.3415887817362915,0.2991456188041734,0.2572578269611143,0.2134497330042895,0.1562674750150572,0.1180658308679794,0.0675857220632885,0.0286007643582779,0.0038238501287719,0.0,0.0060294612986733,0.0496372967952778,0.1055354322081898,0.147907498624876,0.195084497992382,0.2369993699129065,0.2497729285421877,0.2731948865180742,0.3200257556794366,0.3631500736149529,0.3797109602043087,0.3952912582296721,0.4118737759918338,0.4333094445860279,0.4516177049405345,0.4713676709631329,0.49952606478739,0.5233286864464834,0.543428298869931,0.5568068199890805,0.5374045235847045,0.5080792816536239,0.4767290201089333,0.4457083323469204,0.422814222696156,0.4119891022873609,0.411779967302615,0.403512997343721,0.4000129523055982,0.4051058955794548,0.3933925438725096,0.3930914897096751,0.3862756040157213,0.3736795725444635,0.3590592196015021,0.3702576633496601,0.3743780293989012,0.374950007811202,0.3891573552238307,0.393100934621323,0.3931061932932054,0.3931363129042622,0.3993422262427155,0.4116326652503752,0.4118284626236912,0.4118841019701902,0.4210100283333418,0.4507584445057313,0.468067559344353,0.4857085194248975,0.5063273100892252,0.5207497867393887,0.4860313747374167,0.4412501300624201,0.4096318068022366,0.380894063378884,0.3744120856167123,0.3741566624531085,0.3535360126435183,0.3122273094173131,0.2834302532014661,0.2866168936445792,0.3238581628887509,0.3788540708721264,0.4272017835163635,0.4857936271376188,0.5350413275924399,0.5929292587155586,0.6551477865941919,0.7042421361973541,0.7623100681388597,0.8250032495149555,0.8877044644793206,0.9498752933808658,0.9727795176350088,0.916183094946048,0.8623789016083125,0.8093509651801605,0.746737005724611,0.6850713573082174,0.6374362235624433,0.578013010519288,0.5294864157900507,0.4822408668473357,0.4350999570440135,0.4019637938529459,0.3768708494835051,0.3743865025539996,0.3743840423396309,0.3752597824802191,0.3897661146665183,0.3998301053221782,0.4126266111219245,0.4273572363839104,0.4330354499368942,0.4581102549470341,0.4854448862156078,0.5114766151097356,0.5397217634385396,0.5587547495506469,0.5549016322085407,0.523649133008627,0.4961634160881445,0.4650827136792803,0.4420439727017213,0.4307380397481681,0.4247179620270511,0.404294353138388,0.3954706379627142,0.4104922165585232,0.4036626545072437,0.3930780784822572,0.3805419837493655,0.360649907263769,0.3623426631195396,0.3618787725891335,0.3610991632663274,0.374074032662214,0.3743839641935893,0.3747592586487229,0.3876342415519889,0.3930950154218169,0.3931536670986717,0.4004281085302881,0.3986528937543734,0.3931291247544983,0.3938027181325498,0.4083933795942842,0.4243351443915624,0.4556908760517326,0.4855924851667921,0.4753498848354325,0.4429150742209469,0.3966072567750127,0.3739781783972291,0.3556269609868154,0.3384284390625565,0.3355869384408483,0.3110303817756512,0.2735374980369918,0.2627471378299679,0.2873008480012951,0.3347175948433274,0.389370043949067,0.4409387806722114,0.5030820726883336,0.5525962892053276,0.6101844049714638,0.6728721837109948,0.7324926102862501,0.7804649756033597,0.8422572294407362,0.9047599889847322,0.9378879955320528,0.8866710832845306,0.8303841987700329,0.7796984252559445,0.717295118290405,0.6550986497646258,0.6059645390844799,0.5492766044852049,0.5019486688240624,0.4504288006449921,0.4097614224236796,0.3778695566598444,0.3475738616020787,0.3315580911677775,0.3185943850944355,0.3182205195600174,0.321205302894163,0.3329322984089837,0.3214197473182487,0.3357593200916198,0.3487275882102327,0.372650109346706,0.3920430838904196,0.4218603089396544,0.4436208011604878,0.4634480451184344,0.4592025175868839,0.4386433124762665,0.4300592207237947,0.412548782803098,0.3937610289869591,0.3931062954621573,0.3931061932933803,0.393106193293383,0.3931061932933857,0.3931061932933875,0.3932010345998682,0.4029602961954355,0.4117663057959038,0.4149504787095854,0.4296513583340302,0.4305506127092084,0.4305506451253671,0.4297195628999541,0.4152009574983806,0.4053765084650402,0.3934002816211306,0.3931062092120601,0.3932939231805519,0.4044445066752695,0.42539533403226,0.4462342609989984,0.4674090074250543,0.4986188508952032,0.5161376020313537,0.5358885907408375,0.5075021541159255,0.4635209438114267,0.430770769861946,0.4142701135923099,0.4039701326660729,0.3931128984370962,0.3789016035952794,0.3405017242637127,0.3191624087653042,No
11,0.252573942092241,0.3324343726725849,0.4185677323591874,0.504325823785249,0.575564016959961,0.653950595686752,0.7400542311531777,0.8212129283618013,0.8901720819260084,0.964960677402806,0.9673479188477248,0.9017671360835524,0.8315895714838235,0.7459345006369493,0.6599626391275417,0.5859102740505953,0.5105065690623696,0.4244426191449615,0.3391379072304952,0.2698081039993165,0.1894113998670565,0.1179333029112514,0.0508964327145684,0.0390840698029522,0.0525376932117986,0.0422535367940031,0.0696386162855642,0.1096178612275688,0.1342506642694383,0.1637550491833401,0.1927297593666308,0.1680041497280742,0.1344554908634085,0.109219119092895,0.0748349679757209,0.0759038641022495,0.0611773849483912,0.0788904578634848,0.0811133388349127,0.0889922630971589,0.1042853252188527,0.1201130272961461,0.1038378395895236,0.076912245131937,0.0443162239849845,0.0353834955822263,0.0500636088738613,0.0586310740769282,0.0757666285405633,0.0917445977660293,0.1311863895758755,0.1875537299574428,0.2196789733745401,0.2555978931017284,0.2689937231529864,0.3000843804474575,0.3038159440061925,0.2827068666947943,0.2643852187902542,0.2367981611578136,0.2157978848581909,0.1690687494573395,0.1578999165934087,0.1633477211362852,0.1250187610282029,0.1025655770360329,0.0836796270687698,0.0930897412332618,0.0944543118489869,0.0437411437562667,0.0,0.0357341221377836,0.110045468305481,0.1958664268467616,0.2691177614546221,0.3453608197195756,0.4314021004142492,0.5166778984948066,0.5853583173630921,0.6667707274140917,0.7528916103214756,0.8360751860409565,0.901509835670376,0.9487639134264688,0.9198678596095528,0.8375008461464906,0.769540417304635,0.6870015361545296,0.6008699884652722,0.5149559762769207,0.4427291888566498,0.3654646391650868,0.2793784400610324,0.1943523283303339,0.1261099070164326,0.0527584754376468,0.0184291306135273,0.0036888749421764,0.0189801926206159,0.0482789362243711,0.0229575174567773,0.0600187076041414,0.1062813480880402,0.1405334012015089,0.1897122108647146,0.1675509152262408,0.13225510155821,0.1212639143127862,0.0846193689342635,0.0470307297323104,0.0600659846120303,0.0800908867845664,0.0769858101707958,0.0473292733147059,0.0596898800108531,0.07999201816778,0.072244206333313,0.0693041683707873,0.0668606632351243,0.0374159258378847,0.0347915818331228,0.0235070847706206,0.0318979169976114,0.0378824089930911,0.070640658412322,0.113594968588611,0.1507314835008593,0.1862295060082721,0.2201900916239116,0.2593271633533272,0.2850450998620308,0.2885037751363413,0.2883252879589935,0.2692995723838209,0.2262776571905358,0.2064672557615212,0.1604405238527544,0.1326586601947235,0.1268513098950139,0.1122174407431368,0.096977147659059,0.0906987634433855,0.1025685892197154,0.0809288809874528,0.0536608881910409,0.1059801508017268,0.1847015628715556,0.2554404249380848,0.3411063320772318,0.4236810621608797,0.4916281509878843,0.5764671322028048,0.662601491152651,0.747815504389282,0.8163864366844851,0.8979131412091417,0.9728688829397804,1.0000000000000004,0.958203800910788,0.8911435468952384,0.8064012026809615,0.7216298681337139,0.6537227993512595,0.5710405224669741,0.4849087616015572,0.3990127111514767,0.326968860870561,0.2495058210773071,0.163416880109569,0.0775270117729878,0.0173598982123515,0.0218872764321171,0.0349675008656031,0.0504411089254204,0.0956526485357871,0.1305559090589008,0.1501505504627034,0.181105257031684,0.1851824998124276,0.1349840200653234,0.1171522991626465,0.0958928528823093,0.0912805573217312,0.0813520448008602,0.0720355060332549,0.0670916070782188,0.0759487085450962,0.109300821983004,0.1161976975174483,0.0711411888360498,0.0580834563559373,0.0580240386887647,0.0542070646653063,0.036086652193918,0.0243441962506114,0.0393802227458492,0.0582080689433062,0.0802328992202929,0.1076913009205555,0.148495193508662,0.1976375003581161,0.2421282825673278,0.2934006236952258,0.3072141291534067,0.3016089324405624,0.3107262422387653,0.2940670547434814,0.2685160079748465,0.2294609302931838,0.2127500178636481,0.1805649194236838,0.135608091356425,0.1261911464835003,0.0987018432713475,0.1005623581383781,0.1064381635227293,0.1219335312559239,0.0977168603438793,0.046341239970943,0.022177436065192,0.0896101370609199,0.1755885885908155,0.2543666253077603,0.32527663336962,0.4109755709744953,0.4971104495412262,0.583162656675952,0.6575987224184421,0.7326003878768605,0.8176196808591878,0.8855176847893271,0.9424013096246396,0.9415066073352248,0.8795471615437287,0.8087499516708472,0.7304433289454146,0.6443447635614077,0.5596636245710571,0.491809915848004,0.4089842432295385,0.322852269187964,0.2369859716201818,0.1651132673345934,0.0875824735663117,0.0152136358556336,0.0030054058447293,0.0138884623961303,0.0323336667985296,0.0469591088034309,0.0819218429451349,0.1039716731429631,0.124330433304328,0.1267932239698912,0.1071231205620009,0.063685421444207,No
12,0.1039485503548944,0.1094338165519439,0.147925665605821,0.204817953262991,0.2294314901313749,0.2278429073074561,0.2371243819153603,0.209410795135875,0.1474687797552758,0.1050997040049859,0.0525947006621732,0.0162441466606382,0.0004555041939431,0.010636775485072,0.0670122144698148,0.1180231915289704,0.1650406311869963,0.211562431661771,0.2315133730273575,0.2458020344977196,0.2480413165925123,0.2488958327506134,0.2500527558152683,0.2278764024355521,0.1630897342176585,0.0969936568644418,0.033032657790994,0.0017375656500449,0.0,0.0110701536536592,0.0298340047861418,0.06705975930211,0.1169338033448137,0.1531927662687024,0.2063247575202798,0.2479149753264846,0.2874539270568661,0.3122785313097473,0.3357184310550343,0.3650861711453235,0.3725549164947295,0.3513201654403057,0.3053072090872728,0.2753169915803344,0.2471535010224186,0.2339463122905614,0.2310841443090554,0.2071950278420797,0.1912533752794258,0.2068756571239896,0.2602579717364528,0.3261911917099831,0.3922892524304342,0.4583873131508844,0.524454487220662,0.5840508276427054,0.6395501292358534,0.7054211569763393,0.7715191900946032,0.8372116300583139,0.8652728078812655,0.8201650457179981,0.7585029388050311,0.6924193757223693,0.6263224885852741,0.5621190052609317,0.5099171845600727,0.4453885686506105,0.382499627469286,0.3359723632106308,0.2915148553493889,0.2347243986401559,0.1924117682996384,0.1849009515562332,0.215703515763316,0.2406670063755878,0.2428009664993493,0.2427528458313319,0.2354942624450893,0.2353007040585386,0.2591616462923158,0.2814888692747375,0.2947866401182804,0.3061757448751612,0.3295220345006253,0.3571157143726098,0.3988561204586172,0.4343732189365528,0.4769714523941681,0.5052101022395514,0.5591820807363703,0.5923993183471863,0.6256602826894553,0.6537268516028205,0.6301477274146303,0.6007637231780794,0.5593069326767606,0.5308916170739191,0.492384454537718,0.4707741877805929,0.4427751327827662,0.4073304517741625,0.3881251652126374,0.3644387860253304,0.3339606514581201,0.3213120689916504,0.328969184377065,0.3155246625263519,0.2894442871403639,0.2612379540540552,0.2444647998860705,0.2284338103716701,0.225002070221616,0.2124911849833584,0.2081003686122704,0.208513464810653,0.2204301081003503,0.2304056675883181,0.2275520782095927,0.2391937410497893,0.243350088890053,0.267238166114403,0.3061570742215078,0.3292962255356451,0.3466088672755063,0.3361143315458963,0.3014573182803404,0.2732217721271963,0.2453362635616454,0.2553807242685337,0.244723716657313,0.2221542620214105,0.1759197673749066,0.1593834448549449,0.1916736057682833,0.2542068783007529,0.3119307470619707,0.3692166020359733,0.4352192540360624,0.495379782651864,0.5503667467255355,0.6161785641808697,0.6822762009739431,0.7467222112367393,0.7511556203116658,0.6895229086684238,0.6370748759572993,0.5740961862708316,0.5213276821215862,0.4589171062461856,0.4049340796022149,0.3437034038291022,0.2841415939207787,0.2469280365678439,0.245710922514307,0.26933131269349,0.2855340669038275,0.2805327029420943,0.2969724466328607,0.3071408208145372,0.2953322832986491,0.2948913220812557,0.2982239300877602,0.2985618534709644,0.3166164292172504,0.3353842579393897,0.3524627110423837,0.3834293789664422,0.4276936614421385,0.4598149934718178,0.509989069944941,0.5331412681767937,0.575779856195501,0.5976897711568623,0.5894239479316439,0.5437581986305724,0.5242382335541471,0.478228651494351,0.4485549184614905,0.4198802191551882,0.3938060422033209,0.3915694238361418,0.387038215037395,0.3755008263566726,0.3799122375989445,0.3991365738723327,0.4133436276709519,0.4257588945075183,0.4270012684692896,0.4241774698402141,0.4365418696769212,0.4497788092746768,0.4394629120538464,0.4468408918264166,0.4588863547512321,0.4664555525268432,0.4587802280305584,0.4704760729387933,0.49323056135818,0.5069848453122008,0.5280208922963938,0.5530313530475928,0.5595522563892907,0.5366361141266234,0.501219238323277,0.4675590375943028,0.4520279060287611,0.4343637176994139,0.4250757857528238,0.411454922105861,0.3770114772200816,0.3522396988650538,0.3866251981117146,0.4454841562747762,0.5072576200564578,0.5607502663649946,0.6263894306496551,0.6924682474244115,0.7533547605354398,0.8076870711120043,0.8734232309807557,0.9395186573719584,1.0,0.9821295583795644,0.9169923127620874,0.8534958236425765,0.8011450349110811,0.7360530525791327,0.6700044272628403,0.6111897116725773,0.5557748075185822,0.5053431691380035,0.4567122669606362,0.404311382417637,0.3554047157993243,0.3553387944701294,0.364225939411305,0.3575178225689792,0.334091728399752,0.3380607688080386,0.335282623347839,0.3304119948743906,0.3325328345375173,0.3486718301862321,0.3727291399790875,0.3860938878487046,0.4026292313375803,0.4383272005902792,0.4827642012847422,0.5122510829168525,0.5500874383987804,0.5757672076975506,0.5929764766192407,0.6000813104600065,0.5749741252513378,No
13,0.3573280509805134,0.3259368871370021,0.2907019673425446,0.2927679625666877,0.2720391110186146,0.2538521358971684,0.2532496171018379,0.2272250248398624,0.2168075374123681,0.2058523329547674,0.1748689870569526,0.1280284878100301,0.0800225222410229,0.1043681689218547,0.1693736735663735,0.2358260004538128,0.2906014741155158,0.3579223481471265,0.4264420384663281,0.4857212237171127,0.5310019963537251,0.5809987773611511,0.6490126263210931,0.709138211997765,0.7691506265399499,0.8376494682416853,0.9058692057928784,0.962315249323777,1.0,0.9824348288074348,0.9237280427873218,0.8600315279355577,0.8034069253119194,0.7352287896168193,0.6666089711345573,0.5979891526522967,0.5293704784045783,0.4622601950069209,0.4074261964209613,0.3408811944209176,0.2798264741077907,0.2284842678641712,0.1859748737904314,0.1792361089029914,0.2042827285621986,0.220943527482988,0.2139669355181452,0.2224682096538712,0.2540331703379106,0.2596077665010505,0.2997032547266838,0.3258132125126409,0.3020182713654038,0.267388910029378,0.2403736008493378,0.2253115028569121,0.2249555981641968,0.222641687342608,0.1982851771337976,0.1937374834890093,0.2146357692172684,0.2181437693694223,0.1772007054431879,0.1222074387946876,0.0954737192257493,0.1020860157004435,0.0976983218666847,0.1313620155216899,0.1653964873139322,0.1856835152872573,0.1736487556848747,0.1737565242158263,0.1986498557769587,0.2153948093085507,0.1779768730540394,0.1426673182184648,0.1515943869290552,0.1556813596208694,0.1500976040652566,0.1618726349214094,0.1855495635183119,0.1609145137997281,0.1260797965993405,0.1252075241184678,0.137755162411131,0.1426375580739165,0.1709238290632733,0.2099819880079518,0.2503692870934446,0.2878659584732568,0.3447098620554607,0.3956811983777331,0.4229669617238638,0.4578839945663167,0.480709205872174,0.4990550109488256,0.4704869816446675,0.4276791163226678,0.4076916643503687,0.3885825067853852,0.3411932791039223,0.3109594475746533,0.2882001466528878,0.2738329482455564,0.24867276955018,0.2346951093549538,0.2571951055468218,0.2462651271380189,0.2132843883664703,0.1888571500596048,0.157866984550357,0.1171043556791842,0.0844943197355325,0.1186546119131368,0.1776138327232672,0.2386590891278124,0.2976213852951193,0.3660660190918419,0.4335515923396054,0.4881787701772184,0.535384039127516,0.5888471054364626,0.6572424677214386,0.7258622862037005,0.7944797099718479,0.8606260899577198,0.9153473211428764,0.9641463773403935,0.9529554215873546,0.8978088266619455,0.8403491658467526,0.7777571468879962,0.7091691801711892,0.6434277358942269,0.5882133253006061,0.5206133982602177,0.4521840755058592,0.3935218131599476,0.3320359346014898,0.2690470539799041,0.2126924261119267,0.1747163790377106,0.1576782340997105,0.116509514810331,0.1052100962557371,0.127001689778706,0.1562596532946201,0.1733083252530565,0.1943038677277173,0.2058071839224782,0.1881856373768338,0.1717202164769555,0.1420428829954363,0.1380266886553944,0.1539197344427605,0.1311554359894522,0.1370151036446429,0.1269702656326838,0.1263655383047726,0.1312976908922509,0.1213217110700926,0.1259921020627379,0.1316308685391116,0.1260101767371355,0.1319188094499943,0.1303733756415255,0.1506014780692433,0.1458226845359851,0.1385489095240317,0.1477740142241899,0.1706028818746823,0.1708940114331354,0.1517262838371458,0.1274014968773862,0.1472016931163473,0.1506231881459703,0.1262734962375225,0.1211230732279022,0.1222753602838087,0.1489192034144326,0.1748723343860367,0.2084485797735342,0.2537962802281135,0.2922505023805515,0.3312597491503695,0.3672723221396872,0.4060805731679133,0.4142600037495016,0.4005556811144894,0.3832273675801882,0.3406669258204249,0.3040059333375229,0.3025667833937704,0.2634533291127003,0.2331079854147586,0.2351979618740829,0.2091317527047009,0.1798832309194069,0.1689123083483283,0.1871766183247198,0.166745605458372,0.1699050346301116,0.1487058211143765,0.0990910302706713,0.0515903433583746,0.0,0.0158117857345394,0.069542050455198,0.1267999748410524,0.1887512477643396,0.2573124715910411,0.320212785223894,0.3775248953735355,0.4458852911170963,0.5143974124753163,0.573546807573321,0.634509329216586,0.703056036629079,0.7697798796227953,0.8245563925529762,0.8756231275164428,0.8686148305323611,0.8157697091958305,0.7503563040585783,0.7073026179240207,0.658523378770349,0.6100949111628222,0.5487933049419906,0.5104661033989775,0.4564601664956473,0.3888324170466162,0.3324671652296791,0.2684244331015066,0.208137541341828,0.1546915383508365,0.1343429821155268,0.1097909622166342,0.0932598177299355,0.1000635728685503,0.1038355763322709,0.1411876420411149,0.1814447766554372,0.2020536964850054,0.178553954045459,0.1983763275354904,0.1999480704531104,0.1687509572098231,0.1483385532021892,0.1699118325871338,0.1534746062118537,0.1615463644086885,0.1872684735325136,0.1647512772619155,0.1561254136127012,0.1723385665557302,No
14,0.2722314656496372,0.251941740766064,0.2242463754656172,0.18602526158962,0.1473728566223804,0.1174347572520004,0.0960749273307421,0.0744614023303955,0.0484708604984729,0.0311319376035545,0.0295573321119255,0.0295571892685244,0.0307818538877957,0.0514694078398583,0.0890440535389616,0.1274381060976113,0.1749095076250277,0.2325419127833621,0.282725926184538,0.3431919608431415,0.4064804670238464,0.4697740485501844,0.5330676300765225,0.5963612116028605,0.659345266187513,0.7114878901967487,0.7694307139990588,0.8326446269868035,0.8875985936328772,0.941441640189026,0.9814951970900824,0.9734424296140176,0.9233079248773276,0.872717733363217,0.8130332846537867,0.7499217736806756,0.6969723725740993,0.6399528789672981,0.5766933639331038,0.5136078501381061,0.4608280677682779,0.4036110220737887,0.3403573724064506,0.2804184560510281,0.2299350482565016,0.1694767650950619,0.1199189917922485,0.0695981468384627,0.0152337794806536,0.0100138097507707,0.0285275547045413,0.0505739955186683,0.0821323758141199,0.1179687641070925,0.1421295984381489,0.1459909352337054,0.1286644905613729,0.0997308947818318,0.0780601495295729,0.0472023836841435,0.0399823660820675,0.046333235595608,0.0463868478291011,0.0463868478290958,0.0463868478290914,0.046386847829086,0.0462796710790311,0.040796396334874,0.0381634293921777,0.0296508931549852,0.0240914794005631,0.0200979297578132,0.031832456774429,0.0453390763400043,0.0505491358829819,0.0639671244114441,0.0890274382095017,0.1221359511021575,0.159062478153297,0.1968666719354392,0.2354982218344123,0.2672734209382645,0.2816431028741117,0.2763866422629242,0.2514148210144218,0.2251719849655002,0.1935812575861391,0.1604294356962894,0.1263417165706197,0.0916495715955738,0.0730316179963104,0.0497948244491972,0.044725008798081,0.0312222521704899,0.0230220170001609,0.0132438891159512,0.0277635882690985,0.0593987381187539,0.09949763720443,0.1431252439805921,0.1948610909489248,0.2488145652019753,0.3119690934041026,0.3749142560402556,0.4266914058036581,0.4850365428337269,0.5483135220457482,0.6112422397699695,0.6628647658139815,0.7213801122865631,0.7845668245034276,0.8388779477880464,0.8944578657383455,0.950626207774162,0.9838799702946116,0.955959867771615,0.906565950643906,0.8442553858329558,0.7810068362399196,0.7242820128727709,0.671014852722509,0.6079119453690827,0.545910767573671,0.4961090078551629,0.4348745953989739,0.37645397500075,0.3247471087461591,0.261811184983177,0.2010008558843035,0.1509216694783299,0.0928754423123483,0.0450562808640335,0.0047606003554796,0.0,0.0264443498911437,0.0619728733819968,0.094689951046023,0.1200444312797959,0.1303412129378873,0.1227162711429996,0.1019249326511353,0.0808698192270274,0.0598998251320161,0.0467684267775658,0.0463868683149257,0.0463868478289088,0.0463868478289035,0.0463868478288991,0.0463868478288942,0.0463868478288893,0.046386809568244,0.0460317365952809,0.0347262872880285,0.0295759895705285,0.029829091387588,0.0406525882094066,0.051901690593465,0.0679510190433694,0.0959130747040042,0.1275499413504626,0.1592091604632015,0.1956339085642078,0.2388844296939041,0.2699258568948974,0.2815763586649575,0.2699928177065041,0.2450592681991459,0.2135801847507732,0.1819331930103689,0.1502862803429741,0.1187538382915436,0.0927344447039089,0.0641016474727012,0.0468240153229246,0.0403954187542439,0.0298066545939605,0.0295588217555047,0.0315975167985218,0.0516394654485377,0.0951709051316194,0.1418946503336022,0.1820217033696543,0.2423444818538458,0.3055911135460585,0.3619999916090983,0.4155435943969925,0.478683998377261,0.5419736492994649,0.6020104996899582,0.6524949585462374,0.7150283371571016,0.7768713866427621,0.8268237902148456,0.887934201333128,0.9416200518419604,0.9916230273283028,1.0,0.9627891700916704,0.9010808956421807,0.837926081400747,0.7839423521198818,0.7279824560743129,0.6647367640477051,0.6015881209380192,0.5477980473140596,0.4916406253908487,0.4286364739812414,0.3760571501184784,0.3186066337749058,0.2553414662984128,0.1920525656061213,0.1315471464094457,0.0836618460387006,0.0426540439328544,0.0438707479206583,0.0518821066196046,0.0801849251436315,0.1189797984042315,0.1528040092669851,0.1640166538553518,0.1617106203043468,0.1429455511427635,0.1142269683204131,0.0899993905445111,0.069594584044105,0.0710673619745843,0.079922290714963,0.0800466252827645,0.0801027208970337,0.0880649812022587,0.096758656357569,0.0968896704010151,0.1015646503498972,0.103342339707372,0.0964602705998172,0.0846856365337394,0.0734579717504804,0.0718207343041843,0.080178092254544,0.091512752782521,0.1161368148765475,0.1487772145369321,0.1823491717905518,0.215254208564473,0.2509423780653184,0.2793446905114023,0.2981697318915306,0.3087505680405824,0.2840601509161544,0.2525482896637339,0.2267405980629222,0.1974738146181938,0.1609855068916537,0.1264952170968452,0.1043914888798336,No
15,0.3818868235380721,0.3818486388893349,0.3749275718973308,0.3642525300645767,0.3770632656915462,0.3619010407932275,0.3217832660707591,0.2719995891082023,0.2206283445735342,0.156533973519656,0.109574538310373,0.0508346888435191,0.0131861597685141,0.0003883137584494,0.0208905797441332,0.0871647910469106,0.1408587509326899,0.1949776981475053,0.2435074612203944,0.2559666156264168,0.2961874845306358,0.3506266492318755,0.3635133662703609,0.3837631644755648,0.4153610662280562,0.4383883600755727,0.4651788263654142,0.4488115296048391,0.4056930036796995,0.3613654388012919,0.3101040606166965,0.2606310233643549,0.2118463681090188,0.1924797106323676,0.2526973573500513,0.3221258182992312,0.3487275883424559,0.3511924394438837,0.3446034554839419,0.3009318474590512,0.2279431743483635,0.1540054626172655,0.0801059428920392,0.0174023552138047,0.0008845473717888,0.0,0.0103827891365555,0.0307303628707589,0.0707489664067129,0.1267142242537251,0.1676993843903904,0.2264488453804793,0.2732514835134658,0.3172439628762271,0.3406917375448395,0.3271080279707452,0.3126208793636267,0.3106512649593593,0.3527272069793672,0.4170446836507526,0.4760969793523606,0.5488652009931911,0.6221984080397855,0.6826471015325528,0.7515851737509003,0.8255086288413191,0.8926151011234356,0.8814707149237364,0.8129137545450873,0.7389965948227042,0.6687878117090347,0.6093160695590951,0.5390691535215915,0.4863241980830608,0.4339610298911234,0.4058463922679958,0.4010053963582107,0.4016454958233306,0.4153166615977763,0.4245787447541058,0.4399642033128459,0.4594737165205251,0.4896302187544519,0.5195641728391305,0.5521846104083341,0.5822661568267624,0.6210669913042146,0.6671596157407271,0.7042085036507868,0.7378154749780621,0.7547223410662767,0.7350909697117345,0.6821332272022076,0.632207579337591,0.5848113126849284,0.5403767988349708,0.508147648780163,0.4663922682772718,0.4287309799115015,0.3845368943428529,0.3549188486779751,0.3438484428764603,0.3437664690173942,0.3535589825408824,0.379594823366967,0.3941375024352114,0.3959443087774641,0.382513189769444,0.3871369795357742,0.3867932422619411,0.367499386311378,0.3796660130331868,0.3760418551366697,0.3631083309137017,0.3534303742788878,0.354577097424765,0.3627169158286714,0.3593697740060761,0.3493424660551634,0.3790962518387939,0.4035442740268333,0.422346722793407,0.4551435528149641,0.453332712910524,0.4107783419576165,0.3673952027113549,0.3446988931662904,0.337618657048178,0.3243994495864055,0.3101810501127184,0.3089139903119395,0.3467302079931698,0.4116207033833308,0.4854888182324224,0.5580754802284003,0.6167235599956427,0.6882030540046338,0.7621385618796683,0.8358355385813416,0.8811714756384412,0.8372210675908618,0.7641636048566016,0.6927718843881197,0.634103375701812,0.5667745084920037,0.5109874770559601,0.461488414633008,0.4175565980243467,0.3838827335948953,0.3663544326303012,0.3759544328108681,0.3893597112039724,0.4007986525698652,0.4073686313476807,0.4262185639920108,0.4533552397869949,0.4726975193088791,0.5183099919649514,0.5565895976576032,0.5924263117153163,0.6295511367747961,0.6780093261632887,0.7178022872466343,0.7524407510481996,0.7476609818973681,0.7018127243136258,0.65668989345447,0.6140835125026074,0.5635460423924115,0.5185105196828759,0.4745290685000642,0.4334651570135901,0.4013403680162684,0.3804661402270488,0.3635489290770017,0.3491132003451023,0.3593668160310725,0.3734472110065434,0.3871600324573907,0.4052772650703868,0.4195696595797593,0.423601183597825,0.4277540578880607,0.4102888752544444,0.4011022170972365,0.4009893044835526,0.4007064088108265,0.388811257067136,0.3819184742173687,0.3818868235385313,0.3818868235385371,0.3818892482565408,0.3846042296258991,0.4121156565580954,0.4475410148033338,0.4764397908679192,0.4924586069081655,0.4461150786647643,0.4000054530328771,0.3682072784877039,0.3540782281647257,0.3526138620317827,0.3464165365566956,0.336854259310126,0.3344378421770124,0.3771486605138872,0.4389293462596435,0.5062751663398126,0.5678597004183406,0.6414402125543219,0.7106921859856934,0.7707648178418847,0.8441668624086027,0.918104552090862,0.9903733286351124,1.0,0.930462891830294,0.8565272912553912,0.7825894532445834,0.7087992400055478,0.6456889108633477,0.5852666517802168,0.5295813427670675,0.4789807444855292,0.4337593322372544,0.407743882897285,0.4054104086426848,0.4207705881843413,0.4308347446042697,0.4276154285234086,0.4462721781641652,0.4730474905987734,0.4833720697880839,0.5120411198990253,0.5418123101478836,0.5763613104833878,0.6242485030690434,0.6640555100366745,0.7088461384115181,0.7485906074475981,0.7907678600645136,0.7934891702522586,0.7528208747123482,0.7091249767908132,0.6599881353295864,0.610764887221865,0.5644655525470297,0.5196286850366563,0.4808284923954753,0.4440369002241571,0.4146922190436775,0.4006960289552643,0.3862265993257581,0.3827527887582738,0.3969733790754399,No
16,0.0710047139873379,0.1017364218008261,0.1245930279559326,0.1826409322095479,0.2408062447180095,0.2765340128162998,0.3257424272395512,0.393694792221293,0.4687410533706062,0.5227988035830453,0.595494074117509,0.6715566941289239,0.7475924296664909,0.8131509605178415,0.873584926601934,0.9472500809543528,0.9761073784148584,0.9643493315875348,0.8966526625151507,0.8282692917221812,0.7704606574150485,0.694842330902345,0.6187814738130317,0.5469463575303619,0.4921384304989846,0.416967065406113,0.3409006519462503,0.2648342384863866,0.188767998182211,0.1141835070849328,0.0644236909612834,0.0183485031602783,5.7877224901581314e-05,0.0069299825334665,0.0260092610305493,0.0465741630710949,0.0923883353853005,0.1304244938641225,0.1573631212489292,0.1774778167251565,0.1838120793456177,0.1529536490761929,0.1218647424682783,0.0866003289153765,0.0615287423184094,0.05280051502353,0.0526111217102753,0.039179719194724,0.0454720777092809,0.0705446839888317,0.068715157190323,0.0528925721519488,0.0536188844591727,0.0742825872130241,0.0633118289688638,0.0528103841919485,0.0528005150235033,0.0614311129603581,0.0680262069967669,0.0693877751396003,0.0791207683669066,0.0791583680149505,0.0719172235792191,0.0571085178034787,0.0775663092938563,0.0791698270086032,0.0784755431748083,0.0587963895466963,0.0527840664094032,0.0527797062696189,0.052820253360351,0.0651218631764622,0.0776575058432813,0.0572516062520565,0.0615153315642613,0.0790680247016588,0.0957209001737258,0.1032588631045374,0.086506685021531,0.1044766376489514,0.1055603570246175,0.1055604829560223,0.1055604829560188,0.1055604829560161,0.1055604829560135,0.1055604829560099,0.1053067138870034,0.088506152616727,0.0791941930894513,0.079170094612782,0.0791909033666318,0.087904838387578,0.1047251420328638,0.0865077554384585,0.1079471775712956,0.145312540783264,0.1712045142926941,0.1969116686102463,0.2414908456192845,0.2827148001338813,0.3100818146590969,0.3489318616056831,0.3994424593715315,0.4449721855166704,0.475118319236441,0.5043337294358121,0.5263253407173965,0.5227021017510189,0.4971345271276162,0.4518098505495107,0.4131088072606559,0.3768947266220195,0.351586077288025,0.3246954098104639,0.2720215179666141,0.2241082076000822,0.2063942556260229,0.173230293781315,0.1350772827713333,0.1068847502273735,0.1053069027840516,0.0892335904512169,0.0998690732484393,0.0895589527065476,0.0572680548660198,0.0527947541318747,0.0603120104831305,0.0788652148379425,0.0800660559824066,0.1071850840223529,0.157276060957284,0.2082252586326687,0.2664779289524226,0.3184410575838647,0.3626088222764672,0.4018255041743419,0.4682277713928808,0.5442609982474291,0.6155640835888558,0.6712184319995158,0.746070873476488,0.8221371452635164,0.8981893294151551,0.9665611246329836,1.0,0.9814358022659562,0.9243249453869612,0.8557810972631099,0.7983475513654463,0.7227850950302237,0.64671868157036,0.5706551800978925,0.4975298324375332,0.4435899224023441,0.368843227177015,0.2929966978794267,0.2325625743810713,0.1683478903256077,0.1129130040630608,0.0456154169187801,0.0057538551951505,0.0,0.0008949224355809,0.0272736292400397,0.065305752661974,0.103303653802973,0.140876564296172,0.1581213754800501,0.1583383476549258,0.1553961327901278,0.1308732788041577,0.0987066073177995,0.0624524256941043,0.0528044344031481,0.0562914422689484,0.0773189448856026,0.0669255697423079,0.0528301225286087,0.0527797062694279,0.0527806507549861,0.0578453077195026,0.0706296494917149,0.0385927882157908,0.0459910688450948,0.0527691759610799,0.0547258502204464,0.0767869659670985,0.0791545745662718,0.0706236551953978,0.053116808450051,0.0569516467334079,0.0886843380534001,0.0908269833711532,0.060160133491661,0.0768684747611123,0.0693305118302962,0.0529493868147117,0.0578570343173696,0.0780858715112966,0.0791699686811862,0.0791636567809925,0.0745022824778995,0.053843490696126,0.0697617380214659,0.0791375534057357,0.0770476285957553,0.0601170522665261,0.0820853123209284,0.098125758622853,0.0802337058836419,0.097444939159808,0.1049824584835734,0.0865066850212814,0.1021929603231397,0.1035632325250714,0.0820555937926776,0.0791705983381865,0.079170094612551,0.0791700946125475,0.0791700946125457,0.0791700946125422,0.0791700946125386,0.0791709761323931,0.0839343042508264,0.1049626964366616,0.129098207342639,0.1669275239242393,0.2050291329162643,0.2370475845932294,0.2789484585149218,0.3190122221674532,0.3622524467752264,0.4166168412290361,0.4464921110343436,0.472198938571311,0.453399552158741,0.4485700497895406,0.4381626756320225,0.4129350295216278,0.3853969659554979,0.3382871491300125,0.3086966448053747,0.2621751332419268,0.2236535446430956,0.189028307888746,0.1634317818655244,0.1284424282245995,0.1057368688780711,0.1053120241907175,0.0818910975914031,0.0650519729782281,0.0777703594954388,0.0575442307360765,0.0547267317401534,0.0767546766229179,No
17,0.0620430479417306,0.0444384815752703,0.0520192990569103,0.0747455083529526,0.0977749405859191,0.1217951610268013,0.1495829347702173,0.1590755291335539,0.1659735324676199,0.1724204503376358,0.1598584412592165,0.1332945982531432,0.1306464077407656,0.1301606370707446,0.1130962297370246,0.0914191541257896,0.0869997098122894,0.0869962753025279,0.086995074468497,0.0845464089569008,0.0664221731488043,0.0613606560465447,0.0527183555209527,0.0649225426980955,0.0660789854480694,0.0842628296454117,0.1127093858278973,0.1581922117850434,0.2185713335906878,0.2720470097155538,0.3346182831185804,0.4023668164038207,0.4537969796436005,0.5189546835524452,0.5876780832579378,0.6537829541396256,0.704998179368971,0.7720298385426432,0.8361292823032072,0.8871791178453075,0.9293402096477568,0.9272622810788969,0.8819377329761595,0.8141416176029495,0.7454154276468214,0.6766892376906934,0.6079630477345646,0.5392415213464883,0.4744922012017181,0.4227341476837645,0.3548829185935021,0.286479631943739,0.2321159872342821,0.1705205216125249,0.1051741420547682,0.0593422706899602,0.0383335261007253,0.0221467897211851,0.0146856204243674,0.0,0.0056256631939048,0.0211332839690632,0.0247617828968937,0.0612108980226704,0.0969451897768958,0.1243232512220364,0.110539854132575,0.1088170116613209,0.1049535817844238,0.0876887170754865,0.0691005228462255,0.0439458376196189,0.0433470139355312,0.043347013935528,0.0426645578714963,0.0286397170689047,0.0366462102010429,0.0318684619144327,0.0304026969763056,0.039826182371458,0.0433452734926342,0.043657638300746,0.058239586977915,0.053328454079224,0.0434076551455184,0.0433470139354925,0.0445365230148171,0.06260112127429,0.0650508171889705,0.0539676931301316,0.0312770182065942,0.0212707787407926,0.0071323667734097,0.0009533659408322,0.0190639715916955,0.0290754191641426,0.0461313171725734,0.0735533119555942,0.0986852036242558,0.1319056800061333,0.1532481963400647,0.1719369310264089,0.1821731514367579,0.1990585023982287,0.2162644617115412,0.2019814889227729,0.1758136472261711,0.1581894961955505,0.1488362701671439,0.1304187220474526,0.107160094294735,0.087293204072997,0.0727539748609289,0.065189476441096,0.0651716446188621,0.0652061825436418,0.073699357499092,0.0874945041549013,0.1084545729693,0.1308474553206524,0.1509640083458876,0.1879093505620059,0.2413177112610358,0.306560171960164,0.3580361729012153,0.425321317156595,0.4929037822563242,0.5436053004334962,0.60967613363478,0.6783990819612278,0.7438005234332179,0.7953754392994004,0.8627505883684163,0.9260214742393832,0.963454740110893,0.9704855650387972,0.9266339448894731,0.8758359261579267,0.810715856449816,0.74199195616686,0.6732657662107302,0.6045395762546022,0.5358133862984742,0.4670871963423453,0.398624868584259,0.3432567095151757,0.2827044619553813,0.2140471159688561,0.1547438416818383,0.1025683403571311,0.0580901169028229,0.0601134368101208,0.0651592886160918,0.065171644618819,0.065171644618815,0.0651727396798937,0.06798594119644,0.0982329784070934,0.1437290975825433,0.1731893421852683,0.1742570801868894,0.1653068807246178,0.1477348834969309,0.1136883529614234,0.0964724569018891,0.0870475193295741,0.0869962753022339,0.0869962753022304,0.0869903809446257,0.0828320072381187,0.0660095998124612,0.0651716446187635,0.06517164461876,0.0652918013191246,0.0785360017049234,0.0834139188869484,0.0666301466821237,0.0809151519446191,0.0779909646625438,0.0856713692783444,0.0717493440373453,0.0667080487502982,0.0847717306280637,0.0898488747147538,0.1017153338621872,0.0875561217582236,0.0869962753021718,0.0871279174480408,0.1008832471020522,0.116402864347247,0.1334693853451507,0.1616245278387555,0.1924118289382894,0.2143199471535339,0.2179418574139116,0.2178474803450716,0.2073355734769655,0.196182964672849,0.1900821301371849,0.1747232426386888,0.1665201262350319,0.1497993870961664,0.1388870810400138,0.1475946847770348,0.131404854809352,0.1306194881325626,0.1234938910301708,0.1157369333845266,0.1494687469916957,0.1427316474166531,0.1462263238628116,0.1524529425522134,0.1568823306577695,0.1915892061537922,0.2551836872317654,0.3057664473830068,0.3720853650238434,0.4376439083886798,0.4891378938615727,0.5563394221179303,0.6128510122363595,0.6622133499234701,0.6995740474074639,0.763179113495501,0.8144292065055101,0.8814952146687158,0.9455195619277044,0.991094217839577,1.0,0.952032287557354,0.9001076987451642,0.8356207155057813,0.7668977111818922,0.6985452654865165,0.6450466192534066,0.5825380229262773,0.5138175820408293,0.4450913920847013,0.3763652021285706,0.3076390121724426,0.2389473324309192,0.17859948174342,0.1232623090121389,0.0662983498430258,0.0323955019858068,0.0215877768681749,0.0261334351811743,0.0402312811581109,0.0242643204273496,0.0410867514451487,0.0433480405549167,0.047588386897162,0.0914284752086582,0.1083103514926171,0.0934968879219968,No
18,0.4276201083836994,0.4276242017247069,0.430503751875035,0.4439352865507442,0.4518951168582523,0.4754058416452498,0.4922827361756856,0.5202816283406642,0.5424560584352012,0.5662150438836537,0.5904363459356445,0.5972279980205855,0.5756076544091533,0.5462940168898722,0.5124575128312081,0.4734425258676591,0.4411622691587502,0.4118059014129542,0.3839023542772541,0.3734488919822207,0.3542729960112121,0.3199313442279621,0.3086876860089567,0.2811732198411762,0.2432716525224787,0.2042805578505828,0.1706801084416147,0.1902735453825532,0.2478722355877241,0.2987160365710859,0.313371770587727,0.3146753429235529,0.3109679387799935,0.2844461793493704,0.2277756705017379,0.1690780687701316,0.1103794998386566,0.0518688415629848,0.0093868875369809,0.0003540326979063,0.0,0.006409840779272,0.0211344116558684,0.0471765529702494,0.090320970072061,0.1305264265652854,0.161317323954345,0.2120554180074032,0.2466752232438316,0.2824857029661749,0.3060742385661292,0.3208100534796299,0.3303202184051939,0.3447494207901158,0.3599426635390763,0.3751953570024087,0.3897641474572961,0.3955622665458742,0.4093454159369263,0.4105127153173193,0.4087173502727159,0.3940310471735189,0.3795790970014359,0.3898342445056753,0.3921681883361851,0.3814428070402127,0.3795876124440505,0.3793595210466582,0.3924784710128057,0.383273631417337,0.3763501987151096,0.3762999846268768,0.3739146877163595,0.3659517847885238,0.3760910271948545,0.3763488937049293,0.3837598787211225,0.4127675326554665,0.4410773526107641,0.4230777661823892,0.4056099300000162,0.372835680651324,0.3457489965238651,0.327229755774737,0.3127973114069124,0.307675610411255,0.2962736335551827,0.2865535165706903,0.2631754708597622,0.2622047732352466,0.2961888943282487,0.3442005909489753,0.3951940745774522,0.4536023600211263,0.5016330464008667,0.5541579196522433,0.6128392498922097,0.6714285176635864,0.720770276219846,0.7692533924684373,0.802682409020909,0.8550350212568869,0.913711291829193,0.9717693885999116,0.9913234580035684,0.9510715892603674,0.8939209512677166,0.8352229710440282,0.7765244021125537,0.7183514463666265,0.6722476982671188,0.6175295233913327,0.5588365664752586,0.5001584139355169,0.4485677757998494,0.4102403430141748,0.38197196349899,0.3592738680167109,0.3407529747525006,0.3264959835572742,0.3317661339990887,0.3419380000895806,0.3421562456837788,0.3515314053203422,0.3737925162058273,0.3847490987419135,0.4091400482788332,0.4287896396178521,0.4544148791312441,0.4837450121294759,0.5102452531088058,0.5335218930296421,0.548045719553838,0.5579090931367845,0.5323010034147537,0.498208938947525,0.4654035690518681,0.430975151479847,0.4015883448010711,0.3764914569619306,0.3569729841737938,0.3426519245909589,0.3420880340703558,0.3420879079409373,0.3420879873557627,0.3425528942571727,0.354933168696796,0.3591858480136625,0.3591922034141164,0.3560287041365813,0.3428252526010218,0.3420877257540224,0.340895854131884,0.3271029821385349,0.3249838088767705,0.3249814678523783,0.3249814678523823,0.3249814678523863,0.3248787489137426,0.3158469296957453,0.3160515562955028,0.3248728705122405,0.3191578302853477,0.2960147747766473,0.3052042368167078,0.328268338408634,0.3500047702321245,0.3842980840690835,0.4122985671658958,0.4069968571157756,0.3849475511434628,0.3567990875175502,0.3275485899341639,0.3043858051392112,0.2912074725957763,0.286849833239307,0.2741928141176979,0.2785077317967595,0.2751053752558667,0.2451669288996298,0.2537645079069199,0.2982372161706839,0.3432257737223838,0.3994949628856106,0.4531220796563553,0.5000382830243839,0.5585011460815483,0.6171286971778351,0.6673691152230776,0.7175673923191157,0.7761889817188465,0.8348875506503202,0.8935861195817956,0.9522403182851508,1.0,0.9722551118993192,0.914046707551817,0.8553481946778643,0.7966632895251466,0.7432082071447761,0.6960223835177519,0.6376603403547283,0.5796302119996857,0.5338924379242527,0.4791681985249418,0.4340342205851981,0.3951560192107939,0.3690150095712159,0.354543167937281,0.3355689802516912,0.3273201317020522,0.3419645934931306,0.3565763130269395,0.3599693056546642,0.3735534322021672,0.3907196409492188,0.4098023992392896,0.4239438245168672,0.4474210314177136,0.4721421539128188,0.49468509649944,0.5238356589695474,0.5526016399484535,0.5642094695228117,0.5535943892474116,0.5183996714565176,0.4844451984932654,0.4455037418976619,0.4116729857720611,0.3823057707086144,0.3608254385416001,0.349474382145599,0.3308645356036259,0.3357158288811641,0.3420698748245616,0.3420880480849328,0.3427099051323519,0.3557034126985523,0.3496472204205596,0.3506663812940549,0.3550616020602062,0.3425780067964457,0.3385115316874589,0.3255154649819487,0.3175456142213764,0.3080040892105091,0.3078673221731298,0.3037507903611849,0.2912533342780476,0.2906101887795116,0.2802427839047339,0.2662078037491073,0.2618461445532127,0.2582770885971386,0.2613015168317849,No
19,0.5088911698643144,0.5088911698643206,0.5088973353677675,0.5142196413584506,0.5210205531215752,0.5126536955827121,0.532956505513094,0.5344112789832822,0.546360479770823,0.5823552110156722,0.6084393174598643,0.6347925977901676,0.6553905407894014,0.622158689696577,0.5899401437145322,0.5434671736095487,0.4918818378231515,0.4335477874066988,0.3755744385915762,0.3185172679519472,0.2639993005697909,0.2621817491630902,0.341098448488478,0.4238051055053815,0.4624399753318977,0.468116845905032,0.4665294149691994,0.4485208935760409,0.3766533327608687,0.2910997527264767,0.2054800340990712,0.1198638310457198,0.0381527573665221,0.0046792244167725,0.0,0.0007097703144713,0.020119217392176,0.04378727401189,0.0897118929934226,0.1574210327726519,0.2090063218639666,0.2635433918306309,0.3321880710297153,0.3827541385977846,0.4261728045469097,0.42057901292914,0.4171172074586073,0.4401003871561877,0.4980517284237042,0.5655757240840416,0.6314454799749649,0.7119412608002946,0.7862990680233883,0.8579669555319711,0.9433126593694672,1.0,0.9546387633650548,0.8709783398561886,0.7853590375301849,0.6997393189027798,0.6145342675719876,0.5465989097147936,0.4683017900765658,0.3855504192949675,0.3216085532349151,0.2668625351328684,0.2722695967427997,0.3296236094350404,0.3936655235914323,0.4642362790448233,0.5020311240732105,0.5334320369737631,0.5549014205162939,0.5686658313921091,0.5897135114583145,0.610046126167024,0.6314295147463893,0.6615567277350651,0.691332774348485,0.7340247500107813,0.7768248292913666,0.8196334208230018,0.862293914816461,0.8897419320966495,0.90537680151884,0.8765670417770233,0.8402044411194671,0.785397735078198,0.7311038751577392,0.6877519142797279,0.639716199762721,0.6001123635712711,0.5653986579371457,0.5517537691184504,0.5348023666606716,0.5343376280608956,0.5343375897363218,0.5343375897363272,0.5343375897363334,0.5346330340838872,0.5497540040715805,0.5597595191882343,0.5557778153243342,0.5387298371882867,0.5498298704406279,0.5369319756943547,0.5566812255896796,0.5431418131652377,0.5343834707207327,0.5343375897363902,0.534339769126424,0.5370111351703599,0.5586859652336518,0.5801009333687954,0.5967400492707053,0.6353670641045657,0.6698333738338116,0.6660661075067553,0.6518281046196481,0.6041677074061118,0.5569260700056589,0.5243292312754075,0.4895008781278127,0.4830773151531851,0.467436661956532,0.4809641349656504,0.5149844736650313,0.5787565665185603,0.6632104848479985,0.7437132233034438,0.810003687927888,0.8909949230205445,0.9211849943286524,0.8526717505866035,0.7670974891518814,0.6814881468884879,0.6019525900951157,0.5350064987742575,0.4547490569654426,0.390561871709767,0.330866310511301,0.3083029830416133,0.3428662918176677,0.4078896004598649,0.4804253508512195,0.5437611163714973,0.5799120106912081,0.5715926475750299,0.564531122176068,0.58638315703418,0.6087913973999353,0.6354901017306664,0.6631456687648383,0.6884920459999728,0.7172686846742966,0.7558146532411865,0.7911712574678509,0.8267420254998958,0.8491483293712303,0.8833240141844421,0.859004040580305,0.8101359285665399,0.7566161697026068,0.706336696513941,0.6643727927215499,0.6181687179119999,0.5891498474945749,0.5631631899823795,0.5554108365209327,0.5356393996570699,0.5343391862600235,0.5366764526222658,0.5573086492923798,0.5597833594120534,0.5597840096083919,0.559758768773551,0.5495641301480951,0.5346169071720981,0.5343374998721009,0.5332383771171445,0.5136303227941941,0.5089210795658361,0.5161618487617248,0.5339027887540784,0.5335403824066773,0.51478101641582,0.508898134949876,0.5107644022323861,0.5339111786343604,0.5590612289709966,0.5826264169583295,0.6110041301219367,0.6338031432237008,0.6158085247433007,0.5804731369271598,0.5272261981002133,0.4895874691585749,0.4812508113747329,0.4500974988685176,0.435758090033107,0.4575305951081598,0.5022659511239476,0.5773892234394982,0.6467467448226785,0.717523817704369,0.7925823423411131,0.8778494501382976,0.9431437751687684,0.9189262424343037,0.834455525925728,0.748835940773585,0.6637516915585966,0.59615580903424,0.5174246539096874,0.4408902267696417,0.3765722365009605,0.3348053275970426,0.338568803647588,0.4043110972679935,0.4782379879747056,0.5139261070007515,0.5336609889350701,0.5345362726118612,0.5486681479226991,0.5690679118927084,0.5864919089344971,0.6142462298820188,0.6464927411568553,0.6874682963348064,0.7302779443859091,0.7722411363225472,0.804280547790464,0.8453348750196445,0.8694750656475145,0.8768137101549485,0.8423787296506777,0.8044550718272712,0.7479425039553957,0.6979498516200993,0.6647977134390386,0.6175788551476025,0.587052913416577,0.5668261400306251,0.5845943352488971,0.5852304294804256,0.5852304294804318,0.585230429480438,0.585261297646988,0.5929613858259408,0.6103628504854566,0.6105526649000153,0.5976088610355124,0.5848653419055516,0.5669779755974362,0.5598073713663423,No
20,0.0645684839401656,0.0626452741227785,0.0621537888265133,0.0598929147494455,0.100864077360276,0.1340329220464542,0.1873115451224976,0.2367792591938635,0.2914928751931724,0.3521743021735894,0.4075733692705379,0.4784279082728169,0.5362112298199215,0.6022108178963506,0.6728079106992535,0.7277436826675459,0.7982545886465884,0.8708333256733978,0.9423747879717616,0.9793178839191564,0.9598323399292514,0.9011534810133012,0.8428637379977406,0.7774159586904181,0.7052449251985173,0.6471205016143529,0.5813481856824145,0.5087854210881502,0.439131388053017,0.3840328005614357,0.3127133452785395,0.240212483638297,0.1785531349524309,0.1165592165158586,0.0473597829245382,0.0,0.0028336390381191,0.0251458200139098,0.0439828242730606,0.0718765165391448,0.0947923560406542,0.1329430096078492,0.1742684430638301,0.1793006886848731,0.1733070485700367,0.1580020515922777,0.1474382085983463,0.1356825904864247,0.1180578914714733,0.0939386582968322,0.0926359921257113,0.0928786217274373,0.1072184227918735,0.1022166468861525,0.1112293264935369,0.103114629245713,0.0927194291964479,0.0946274933602508,0.1122559616246636,0.1143023309547204,0.1106065217873499,0.0937798576902522,0.1043924516048151,0.1142403440602444,0.1143078165548772,0.1142385972379305,0.1042966115329804,0.1027502033194549,0.1141029272455416,0.1039097854051336,0.0982448422934183,0.1335346894432234,0.1560147610246063,0.1801204438536423,0.2253579630428377,0.2628932137961302,0.3082061607791106,0.3459437686744699,0.3910513935532642,0.4277278521527976,0.4393039985876239,0.4338118140769968,0.4081510971801898,0.3625821050567972,0.325942478845985,0.2870832778628824,0.2455415212254998,0.2108425654310917,0.1834126962108446,0.1475275462535727,0.1222394015669952,0.1345568997796551,0.1145342728603981,0.093419051260855,0.0926357482227162,0.0923671938868095,0.0805317098945082,0.091777609817123,0.1314800548583781,0.1798163445853946,0.2350775429653508,0.2921182847300181,0.347791945233614,0.4138286047964481,0.4688875530258114,0.5393414171070998,0.598133503771598,0.6630773722796643,0.7356160217606806,0.8055428418114507,0.8607982527202207,0.9314558273152018,0.9861670324910454,1.0,0.9640810598153484,0.9049068114809922,0.832960426296756,0.7755082411327567,0.7090029664671285,0.6364928419028208,0.5728755351661476,0.5127912380353212,0.4403663907849422,0.367786168605213,0.2952059464254826,0.2226300202922702,0.1539434140936864,0.0982152006660808,0.0393581823178443,0.0608746334978107,0.0709327513201554,0.07664940402447,0.1006268671681915,0.1416919855431091,0.1760645572874821,0.1939922307447537,0.2009112687113838,0.1923442777418222,0.1682486433935248,0.1443000969059324,0.1271127038265374,0.114465544530518,0.1118879436536457,0.0942034716180351,0.0962486225083796,0.1131340776500295,0.1165782401951691,0.1337251646406918,0.1218264148014904,0.1283617389317557,0.1359496843643866,0.1414913006199802,0.1469435596827399,0.136096405800616,0.135979896948001,0.1359798969479988,0.1359798969479961,0.1359798969479935,0.1359801153885143,0.1371900381896718,0.1539445945263695,0.1404850493087872,0.1408665432936202,0.1636519038985007,0.1914342527446306,0.2265166807124172,0.2647361592179473,0.3076338299712806,0.3606152092854153,0.402919300281003,0.4381699674855919,0.4572013734859905,0.4566547072469986,0.4254284459845787,0.379896092738607,0.3316464083576136,0.2898170713839092,0.256549241782702,0.2131494774231064,0.1857151715471015,0.1500951498893536,0.1140753698070575,0.0933239403802308,0.0893276759141867,0.0720491079639051,0.063767118599312,0.0495069675702546,0.0438972227822693,0.0399648856559391,0.0658000141661152,0.111413408580697,0.1662118481970718,0.2154348109969435,0.2637919141219771,0.322812254949484,0.3775905477203736,0.4476665522348004,0.51442985813138,0.5716542216163911,0.6437436254196172,0.7146684518820194,0.769501247414782,0.8398015451055594,0.9060601009084248,0.9507315132706092,0.9499494285074056,0.9044417209536189,0.8377133741795646,0.7724572797423006,0.7139782672452135,0.641619278515031,0.5690390563353023,0.4964588341555709,0.4238787000891189,0.3518716924460414,0.2952092891025297,0.2278015624739078,0.1558299769377904,0.0993513878028107,0.0343333889777506,0.0065242761601389,0.0213984324699958,0.045486188810413,0.0696486718619628,0.0997800234775367,0.135851707664234,0.163523366587551,0.1785938451342215,0.1655002919625463,0.1540549456334741,0.1366849504554692,0.1212997598923668,0.0981290067594224,0.0926454965035299,0.0926357361614096,0.0926990895967869,0.1025215631578997,0.1141666833276522,0.1142845968918573,0.1081288990744435,0.1114517057361781,0.130773233055534,0.1150781423020954,0.1145534180158223,0.1292201114672169,0.1359511456811066,0.1359798969478736,0.1359777593087354,0.1335694604049608,0.1159161796393415,0.1234053918980522,0.1332501535047874,0.1158113172147876,0.1144364027396478,0.1255948316746153,No
21,0.49743476120531,0.4622862366996823,0.4112956627852875,0.3644347736262765,0.3136066380094253,0.2720921040462918,0.2333310794972525,0.2052446186378014,0.1660019456519168,0.1414526803779092,0.1070897517801463,0.1003336093531763,0.1002690329681423,0.0905815333090136,0.0786031296600122,0.0985900935018082,0.1205414898464458,0.1581222750349753,0.1910137279621246,0.2642444453069745,0.3317478875131265,0.4040043926059735,0.4682159219412134,0.5450287614057197,0.6271486196116585,0.6919952826357192,0.7680492304666298,0.8503469487413358,0.9156689154805596,0.9770327400923198,1.0000000000000004,0.9615830081504186,0.8846969832369953,0.8020652289016419,0.7304287736099373,0.6615461900930266,0.5789863574224428,0.4962799729584026,0.4138488307114643,0.3458535807853216,0.2732309520809086,0.1907651454530898,0.1218794145880433,0.0508207739284887,0.0018324447888566,0.0,0.0137534606954363,0.0535105979569361,0.1014179429809947,0.1487292722332305,0.1901124251905188,0.2227670949785891,0.2192193194443672,0.1822558802140199,0.1339795296223083,0.1110176002087555,0.0641416493433522,0.0501476351267053,0.0501085421910239,0.0501085421910203,0.0501085421910167,0.0501085883139191,0.0509636640976745,0.0696949367284696,0.0752090397547768,0.0752159770102429,0.0763506515342213,0.0959534715122578,0.1003191507727394,0.1003231350920415,0.1003231350920388,0.1003231350920352,0.1003231350920317,0.1003231350920281,0.1003383481791488,0.1090043385627361,0.1295942318544187,0.1642997176895151,0.207554187973471,0.262929090311554,0.3244315488256268,0.3726534336134244,0.4278312780270084,0.4831059837170346,0.5367798632396892,0.5683161441950566,0.5769322984794818,0.553147393102162,0.5164559884999576,0.4766328242252533,0.4352784845011297,0.3913372516791358,0.3402190346916067,0.2986319655206286,0.2515698708955773,0.2145192934708357,0.180512837048568,0.1576534833749838,0.1267694431688411,0.1057117387691506,0.0858255593045043,0.0752666630874716,0.0752666630874689,0.0859371322072797,0.1132793742330613,0.1410167671802393,0.1720385292361217,0.2246127151436661,0.2923821307173644,0.3543898152342906,0.4298389333150711,0.4930978989046868,0.5741668069362267,0.6395943823742765,0.7148894385715931,0.7975513656686428,0.8711152313608213,0.9369261577320712,0.9741937756074068,0.9310573875144654,0.8624046193507104,0.7803713376819297,0.7154041497871657,0.6395278268355349,0.5568328605541732,0.4741977755477262,0.4030382014945961,0.3336881123292454,0.2511183223254174,0.1723941329353127,0.109582988528976,0.031180262270873,0.0004564607128147,0.0174629206676804,0.0449275864973439,0.077294500073918,0.1241004882196423,0.1616313428516886,0.2010033498195134,0.2250888839131577,0.2114333295670518,0.16219841925566,0.1245844243630229,0.0968744415963978,0.0622336573485529,0.0501864676981238,0.0578235426913251,0.074761046772005,0.075215796362055,0.0752158386413817,0.0749766354988659,0.0618454447812122,0.070896999507608,0.0752147464613668,0.0792890903361773,0.0908948408879841,0.0907274780077407,0.0876942877814568,0.0803418834651785,0.0987604193734958,0.0811467773335166,0.0752246787350832,0.0767235728487558,0.097153022249635,0.1003202138450416,0.100497396106697,0.11704379113073,0.151072255264745,0.1901821932072827,0.2403894978714444,0.2922077001654144,0.3471490516795188,0.4020942760492381,0.4573355194492259,0.517062262904195,0.5475433576051949,0.5732933285500939,0.5644912754763349,0.5312671227478405,0.4992175389175899,0.4421680572091397,0.4005433874946811,0.3534861873850006,0.3053287135721212,0.2651611166778642,0.2343261959585532,0.1938228474379779,0.1568200890703059,0.1366573441112666,0.1095014539874834,0.0901647229871049,0.0753897460471839,0.0752263129023247,0.0816825410845054,0.0887217713128412,0.0983303232893608,0.1378658582353655,0.1743583026668012,0.2319551815293175,0.2922383193235007,0.3492451606557112,0.4283412438322957,0.5063318511092683,0.5697365644074304,0.65135448178347,0.733112483263564,0.7967970831579678,0.8743473434676923,0.9465732868303952,0.9768074063225938,0.948447203336244,0.8684583013926352,0.7857523281911667,0.703049658434733,0.6243254690446292,0.5615124164974676,0.4800339022939055,0.3973276831036094,0.3148606363072228,0.2464201132412351,0.1742651016489502,0.0926987461671662,0.0315684915056491,0.0006413094801347,0.0018807424495528,0.0267424438363717,0.0727614842964246,0.1155440746056046,0.1563669198378927,0.1863515096105747,0.2064761847881624,0.2210961211942517,0.1812849231719835,0.1292936464254936,0.1042277295604132,0.0764033708002114,0.0607203889987206,0.056393890743275,0.0746174900712515,0.0761640601950017,0.0946593706343423,0.082053806776781,0.0787304500334058,0.0985941350084522,0.1003226057579929,0.1008985391073378,0.1183753162125857,0.1089807988882909,0.1003383481788504,0.1003231350917235,0.1003231350917199,0.1003231350917173,0.1003231350917137,0.1003231350917102,0.1003231350917075,No
22,0.1891750713623752,0.1691824854186396,0.1288255153649151,0.0646639740908785,0.0252298597477347,0.0873338280118565,0.1630104188047387,0.2223058119894432,0.2973788595611473,0.3718376679029993,0.4315337001753692,0.507490744299306,0.5850256647656518,0.6625584944400456,0.7359413272185118,0.7961065605281115,0.8726736021134918,0.9499080390665626,0.9999999999999996,0.9863211723832292,0.9279214581223152,0.8637231565893502,0.7953755403880494,0.7199646138093061,0.6606674024185808,0.5852894577950187,0.5077550717887891,0.4302199554897288,0.3532950383330662,0.2919787948488004,0.2231453694618714,0.1932248751460608,0.1693253204757794,0.1625757423270371,0.1762590948930205,0.2173954112046883,0.2578055344659442,0.3004925478900104,0.3211078273395888,0.3398367044067072,0.3404240985772175,0.3104662263291282,0.2964355168743964,0.2538690073215992,0.2305073516966849,0.2113273110323712,0.2001364517697772,0.2155078631122524,0.2026575814857576,0.2038943669518533,0.2343365018083973,0.2183065051237687,0.2163472376437965,0.2078230422735876,0.1941286395159589,0.1955473933380584,0.2122390217681493,0.1974376599201863,0.2082300478799221,0.2210478121755961,0.2372213298398673,0.2144861914729636,0.194335959692689,0.1976325062492336,0.2151901716497866,0.2171953145122231,0.2407991367879809,0.2886568245308276,0.3291444006161645,0.3769820244746387,0.4071971647279393,0.4439899229739108,0.4628770773173274,0.4408788931635587,0.4342363894362351,0.4308324112445967,0.3875602128725166,0.3599148658540443,0.3309082616622136,0.2946678105203233,0.2839149868775172,0.2819680369281059,0.2638630368873449,0.2561024729088452,0.2311700409775161,0.1982777366867503,0.1671321840494251,0.1275555157040142,0.077042050551527,0.0159373581869868,0.0430163994131409,0.1137169093228172,0.175403200326198,0.2523917088766256,0.3299184603587459,0.4023359498859902,0.463194075515319,0.5400395034297771,0.6175745299721762,0.6940036002046583,0.7539301724258682,0.8276921403574353,0.9035391709487616,0.9501776995603276,0.9413004330038696,0.8829351539917538,0.818736852458787,0.7504030556878525,0.6791268858925839,0.617436051729253,0.5403076904265891,0.4657504214928152,0.4062594815550757,0.3301911241062272,0.252685938768626,0.1850772738560726,0.1608300655294834,0.1307005064097257,0.1264624918140531,0.140798543800475,0.194705412216066,0.234472202217987,0.2602181281406892,0.2760336242708532,0.2813451621911333,0.2620989990752287,0.2406058159949839,0.2092998916578881,0.19405068470811,0.1854554059212452,0.1663410069018027,0.1551501476392087,0.1705215589816853,0.1578822659578174,0.1629328967009837,0.1595889948196425,0.1681276450232753,0.1694059739600635,0.1512428197662116,0.1472047651989578,0.1351725975040141,0.1631931969555178,0.1654655865060559,0.1675102524736731,0.1459357867536388,0.1335991720121754,0.148028406916457,0.1333941698116447,0.1356759919149333,0.1544761283649354,0.1709359164975241,0.1847440948288885,0.2312076834467307,0.2815767332331651,0.3221831855594024,0.3656442458350599,0.370555031855996,0.3527909315090403,0.3637291954379988,0.3571855198147635,0.3148178375050139,0.2849771744260252,0.2546991056598728,0.2188875561229206,0.1949871555168796,0.19056175919932,0.1736856897345271,0.1897670366485586,0.1825752692785109,0.1686267576004474,0.1385444889286637,0.1043550296720208,0.0555336461587732,0.0,0.0109792520497706,0.087099418832127,0.1520049188300629,0.2199165752762035,0.2973779436493617,0.3741869889785061,0.4350672163035636,0.5074980024064248,0.5850075864089228,0.6557875414158425,0.7180622453481011,0.7951104328080336,0.8624469110370883,0.8869060442663641,0.8525969158106474,0.7880203028014505,0.725263599394617,0.6485294106377926,0.5867050539934824,0.5154183915316586,0.4411501771379895,0.3815557124486459,0.3054104655470442,0.2388625226879588,0.1732499146550954,0.118645693147692,0.1187101373530481,0.1128369044042103,0.1261910926488907,0.1419688696831929,0.1982614624590009,0.2393141196143902,0.2684007974201199,0.3013068863302202,0.2958268688320467,0.2763460365764327,0.2450539815011461,0.2259740625855872,0.2073860167695418,0.1951487369610269,0.2093473235088629,0.2041841016665873,0.2160623165073398,0.2064438146519842,0.2164142375758326,0.2341467260335892,0.2279306352064329,0.2387887519984173,0.2388957482798024,0.2388957482797979,0.23889234007311,0.236006732342072,0.2210561879860502,0.2367616440946722,0.2228040710575967,0.23274805857125,0.2227513413772839,0.2263810540652269,0.2450340827861854,0.2702389945025922,0.3034198131188126,0.3514004632720593,0.3892290023813527,0.4208346469638471,0.4390416174993277,0.4250301805401038,0.4120236151727927,0.372051606640543,0.3335896456030953,0.2919120418917114,0.2673126855199323,0.2254702525201759,0.2161891806171625,0.2077165677458738,0.2060105308601376,0.1940122989697128,0.1849211442136784,0.1657157854621802,0.1403468990676653,0.1022579531576144,0.0564403754248514,No
23,0.3231281939553398,0.3600698966294273,0.3820834154541548,0.3775277518299877,0.3427356849836798,0.3105489942960093,0.2684737609146483,0.2391544612163931,0.195298357622752,0.1653828626241806,0.1307933155739582,0.1159118890247925,0.1257587864968274,0.0989067881207321,0.0769015515636035,0.0796059244504054,0.0936823726827174,0.1192731208265489,0.1682382188620894,0.2237119999695052,0.2817165491976818,0.3299048486175571,0.3914082868642925,0.4466806268333263,0.5150900718967621,0.585520963771474,0.6435055743105944,0.7079944340886013,0.7786882622073996,0.8418130550903995,0.9010379711809344,0.9654010604433658,0.9805305162649124,0.9406409065765716,0.8728041138500484,0.8174897386772342,0.748361278219674,0.67761320494647,0.6068647603927375,0.5361163158390059,0.4653678712852733,0.3946194267315408,0.3238709821778087,0.253639327887678,0.1963926585463755,0.1309826560893059,0.0656228419636963,0.0142539687298657,0.0155493824174222,0.0283476527255754,0.015747864881844,0.0299511776040404,0.0510541624332137,0.0858225786295641,0.1246382389889282,0.1625324899129636,0.1616802296987423,0.1441417172555201,0.1261433777137446,0.0956040407975957,0.0753408239886668,0.0896219431535021,0.094135007974498,0.109712870918722,0.1125433595703282,0.1380278599995374,0.1443761471248752,0.1320522949450402,0.1463858347729192,0.1481764443710904,0.1326896143145557,0.1309455065086919,0.1308602379204622,0.1222740575971155,0.1168007842298362,0.1317616485259019,0.1656203586203113,0.1952336582053022,0.2341105537182519,0.2717801765129422,0.3134311712402562,0.3412452856942383,0.3737225164369913,0.3682915197282597,0.3449740261181508,0.3263008640032736,0.2876441719955172,0.2566922102392741,0.2212198061331416,0.1813021898733042,0.1633409621734145,0.1678302226257257,0.1539513810220429,0.148853237255349,0.1304421818333767,0.1229311659223912,0.1482630474927804,0.1834702517360731,0.2390080613062664,0.2915818684071607,0.3402708901651765,0.39360047932171,0.4579958620967881,0.5142845645060712,0.5807600403871991,0.6491272235909364,0.7043847916721999,0.7736403732198629,0.8438690617820583,0.9003904477244347,0.9653125913593854,1.0,0.9762275532764972,0.914263945555246,0.8435532261850489,0.7728047816313159,0.7020563370775843,0.6313078925238518,0.5606616342848465,0.4991864726306092,0.4383336187098483,0.3676712531084942,0.2969230263979305,0.226979791839935,0.1709755828995853,0.109577524704346,0.0797952281083986,0.0815905594046011,0.099519876222359,0.1264941343352634,0.1323572667609198,0.1659572711802148,0.2005169691597736,0.2336543802930113,0.2458185577591369,0.2233268133583088,0.1884871523248836,0.1608594695798686,0.1361376956000888,0.1609820711425902,0.1663115925592846,0.1515615252887894,0.1631733894581999,0.161650862389814,0.1366510489919936,0.1085748431200301,0.0928015795064958,0.1014338091055813,0.1144093972520541,0.1223296504035862,0.1117115485917672,0.1052623173003675,0.1023594893939767,0.0810039744831141,0.0870622183086506,0.0581175414614634,0.0356640557863365,0.0495180116938223,0.0886915896271922,0.1269665764438561,0.163974773950966,0.2029859336327355,0.2443028491673224,0.2773702055786251,0.2829987132972689,0.2577061909671454,0.2379863100658075,0.209190569485822,0.1887513665640243,0.171502360267016,0.1556114079441872,0.1307880605503868,0.1027246361697735,0.0717155861614586,0.0550813297764225,0.0504045396697701,0.0369127833897593,0.0716142646556936,0.1207131356349373,0.1667427896551543,0.2114581907838308,0.2775140026695055,0.3327358698012701,0.4013323015976375,0.4617193358393132,0.5236806503780058,0.5936895920703056,0.6491713436965147,0.6929075311775317,0.748659399396717,0.8176291166939049,0.8729373305628996,0.9407748289793404,0.9779452132315374,0.947353384795409,0.8813528440685339,0.8106203079511425,0.7447268651708829,0.6880363052671665,0.6177199401899212,0.5469714956361891,0.4762396939357569,0.411623144793912,0.3537563912607688,0.2833348562208315,0.2126852994643546,0.1510833153185227,0.0903672649692644,0.0261838040950874,0.0,0.0189081408037341,0.0338880193695403,0.0470666334790697,0.0738052405535301,0.0852081208782862,0.1066815103386944,0.1462673767628426,0.166947354361858,0.155594026110331,0.1382182025310956,0.1235059392664843,0.0798189216153262,0.0566564656916237,0.0571646465151847,0.0836055698918873,0.1011663358086654,0.0967134550718396,0.092234915384203,0.0922670881425515,0.100688199926084,0.1272782224223809,0.1303312444228521,0.116454788180766,0.1115956289346886,0.1114899050507842,0.1024012010956201,0.0977580518108633,0.1053086733271553,0.0934509551286741,0.118256515710271,0.1437718095969176,0.18837743727111,0.2287879677511051,0.2613150505596042,0.2853087405134435,0.3036083550538566,0.2924307119181479,0.2532370926454876,0.2160477835648762,0.1847899677979603,0.1481469289511805,0.1219728786137093,0.0889368232832485,0.0652452357565165,0.0487845191931444,No
