,0,1,2,3,4,5,6,7,8,9,10,11,12,13,14,15,16,17,18,19,20,21,22,23,24,25,26,27,28,29,30,31,32,33,34,35,36,37,38,39,40,41,42,43,44,45,46,47,48,49,50,51,52,53,54,55,56,57,58,59,60,61,62,63,64,65,66,67,68,69,70,71,72,73,74,75,76,77,78,79,80,81,82,83,84,85,86,87,88,89,90,91,92,93,94,95,96,97,98,99,100,101,102,103,104,105,106,107,108,109,110,111,112,113,114,115,116,117,118,119,120,121,122,123,124,125,126,127,128,129,130,131,132,133,134,135,136,137,138,139,140,141,142,143,144,145,146,147,148,149,150,151,152,153,154,155,156,157,158,159,160,161,162,163,164,165,166,167,168,169,170,171,172,173,174,175,176,177,178,179,180,181,182,183,184,185,186,187,188,189,190,191,192,193,194,195,196,197,198,199,200,201,202,203,204,205,206,207,208,209,210,211,212,213,214,215,216,217,218,219,220,221,222,223,224,225,226,227,228,229,230,231,232,233,234,235,236,237,238,239,240,241,242,243,244,245,246,247,248,249,250,251,252,253,254,Target
0,0.0948471854475123,0.1259200223957652,0.1608964247788618,0.1996397962401312,0.2331539293774649,0.2680281077447042,0.2942454043991158,0.3179498645826315,0.3388749614742858,0.3599037695899849,0.3769898007920191,0.3927035765493614,0.4103306901447199,0.4407058742514633,0.4843507143125649,0.5329988887365456,0.5780401972975528,0.6317394430056675,0.6801176814169143,0.7292400201959779,0.7840848070575579,0.8382553399410246,0.88353212169065,0.933746420074282,0.9511835239583236,0.9182206390154029,0.8638315169460935,0.8089605464182712,0.758831531007442,0.7114255812439219,0.6566769803015988,0.6017655975433682,0.5468542147851372,0.4919428320269061,0.437031449268676,0.3821200665104445,0.3272086837522139,0.2724738871772272,0.2254252188991576,0.2099341703148529,0.2498625813458568,0.2939747135202164,0.3433813748689804,0.3963872117818938,0.4260967752863023,0.4292057839646068,0.4359879140432332,0.4414916000613254,0.4366303840442189,0.4147211740908243,0.3927136065597378,0.3717536818962001,0.3589822538941682,0.3728636704451908,0.3904763278639771,0.3916144086371427,0.3890218920236361,0.3807841727214349,0.3899370513325599,0.3924294222844777,0.4034019141932365,0.4153982669143412,0.4243823611421449,0.4290490858885245,0.4269357690560917,0.4228333512526319,0.400732331526912,0.3732901710173919,0.3451825502427341,0.3106205444398326,0.2738551245278706,0.2336117076887858,0.1879422685725069,0.1473563673334319,0.1072899967989937,0.0703588636333816,0.0466355779092551,0.0645209444887828,0.0969193438926543,0.129156733110956,0.168275188032513,0.2049253940046975,0.2413038069283175,0.272125970219313,0.2996182760540244,0.3270591914766909,0.3519001132879691,0.3706195073533982,0.3879554949692154,0.4018910842503984,0.4200238261327935,0.4439603622719896,0.4833539978365941,0.5300064450825099,0.5760145490982029,0.6304322269531932,0.6790959436871382,0.7279245771200682,0.782762528222771,0.8374966225042895,0.8846760518616807,0.9348903973170032,0.9790369412334764,0.9812236872758292,0.939853627326236,0.8887259668108778,0.8424088542618551,0.7878568937953399,0.7329455110371084,0.6780341282788778,0.6231227455206458,0.5682113627624157,0.5132999800041851,0.4583885972459536,0.4034772144877234,0.3485658317294924,0.2936544489712609,0.2387432730115837,0.1853226989830785,0.1778598139999261,0.2218640350954497,0.2686116635595656,0.3145679756751585,0.3610434705006378,0.4043720356782139,0.4273114057417004,0.4229062083717385,0.4289412962106371,0.4371947129374527,0.4357393716953595,0.4136709721098996,0.3860312769657199,0.3699000934653018,0.3558016628546163,0.3623835041011027,0.3827956562281331,0.387173099908902,0.3793439804944987,0.3792240870094081,0.3855559738634804,0.3918218135417508,0.4001448700139345,0.4040960543192475,0.4039416968126217,0.3966546144468255,0.3884007594195207,0.3704717995192632,0.3439570848522757,0.3122797762427274,0.2794815291101986,0.2407391993921062,0.1957378587453047,0.1518539649170818,0.1125669738038135,0.0724672697388904,0.0316486794810282,0.0,0.0062075765991203,0.0386814793307406,0.078668562424977,0.1126628625751859,0.1442092686282543,0.1806001842142972,0.2145588189961826,0.247215004089732,0.2751886380249628,0.3051302132675955,0.330384733501041,0.3543389948834063,0.379890474520588,0.4119458769297448,0.4313329906890539,0.4497056409746449,0.4795307525489989,0.5208659473156005,0.5652733851532863,0.6178085317515578,0.6629416467610183,0.7163902389889214,0.7711712727437317,0.8191079688250642,0.8686871825870044,0.9235131830034222,0.9732931957608896,1.0000000000000002,0.9755320380406862,0.9216326718807056,0.8667215916014885,0.8118102088432579,0.7568988260850269,0.7019874433267967,0.6470760605685661,0.5921755477611332,0.5404190116660039,0.4943966359792331,0.4399214901065418,0.3850101392870886,0.330098756528858,0.2751873737706261,0.2202772595542077,0.1677446418354555,0.1701194546661917,0.2214328476973923,0.2664929223440151,0.3146982798146422,0.3610496666762464,0.405050942450883,0.4475374595140546,0.4759558062950699,0.4754669513880152,0.4761920723655819,0.4790119783211832,0.4720276715979905,0.4423891348444788,0.4164207162408428,0.3971585150723566,0.3856631538190769,0.3889678176311515,0.4109325142504068,0.4165531132433029,0.4162983696873106,0.407874187005967,0.4046545560627177,0.4138400452975854,0.4166978838644224,0.4232072257318784,0.4290288782752449,0.4288507050223875,0.4208663843486866,0.4121284862637602,0.3915623701708768,0.361372780366435,0.3259240836562582,0.2900916963130553,0.2502676428574977,0.2091013941222297,0.1683360319718496,0.1348740345253465,0.1062158302000357,0.0678900036707885,0.0380130825425872,0.050174635610833,0.0815412232984822,0.1147496660916691,0.1565484215323989,0.1976523734057944,0.2240717486060974,0.2502981472220564,0.2864482367321816,0.3143133319515823,0.3411979972152588,0.3593018357583382,0.3805986380308395,0.4013118034372713,0.4142594209004737,No
1,0.7492725401209399,0.7437743685539182,0.7406860078753199,0.752981147854459,0.7677098430893963,0.7706766763797519,0.7789251451799324,0.7765259419754367,0.7808087230143275,0.7889055537802021,0.7747829543351692,0.7492550107214151,0.7276539857683235,0.7178665792280714,0.7405344676008796,0.7731039454554776,0.7925709805496308,0.7995788270997837,0.7676465664077274,0.7131642331268042,0.6588384809746741,0.5997788861894242,0.5464268892647643,0.4860916700730777,0.4324648235259707,0.3735624742057353,0.3129338649560986,0.2598069828407361,0.2000130152004586,0.1384709964619841,0.0789994277541583,0.0268543172368826,0.0,0.0424336443467683,0.0973959887731634,0.1544059401336863,0.2159047428390714,0.2762217101436397,0.3292470377840095,0.3894633036869339,0.4510128579139911,0.5125644894934946,0.5736965113731258,0.6275942908783141,0.686134175006547,0.7476712863502357,0.8092230131013507,0.8707746032496797,0.9317718228182604,0.9831481889666398,0.9847016407912748,0.9329359964581484,0.878238970222631,0.8279240426373728,0.7815271401065176,0.7382288773447043,0.705204691891868,0.6822893325596675,0.6575985842170975,0.6219443588962195,0.5826578655492365,0.5450841435692333,0.504825115457642,0.4664492342952115,0.422820635969148,0.3806337829955613,0.3336004192393644,0.2817584839626657,0.2372019587176075,0.1911198830551681,0.1467079184727187,0.1059354063664392,0.0730314139372756,0.0731789264841766,0.1065273825206662,0.149960329243914,0.1984454000834388,0.2478153692084599,0.300767858390405,0.353304304919207,0.4042623060241188,0.4546715403559294,0.504941622529981,0.5526213644894635,0.6027745483330966,0.6431560550016919,0.6669938943717744,0.6699395910681654,0.6699512276586919,0.6716003559216954,0.6867230161708435,0.7055506022658511,0.7289731297659778,0.7450355973905449,0.7620754902745064,0.7769791140967772,0.7901843660370456,0.8018287876259884,0.7960213475597557,0.7713622468546144,0.7593389703323725,0.7697894947663937,0.8060379239400419,0.84527190020689,0.8677090069004818,0.8807771324241809,0.869214879485017,0.8197760996932746,0.7638753318777967,0.7087472282379319,0.6489835390883039,0.5958913181753218,0.5353733138149961,0.4738232235901816,0.4131608942860545,0.3600127695244492,0.3002628987477729,0.2387167655521249,0.1781867892087567,0.1250929302712478,0.0664952281336037,0.0328679145625876,0.0596671406890036,0.1106941857789458,0.1711567868053904,0.231501410833689,0.2845362946558596,0.3447143451135688,0.4062637949012473,0.4678145384657102,0.5284115216693706,0.5815300220823094,0.6413736873943723,0.7029222233374923,0.7644739017522362,0.8257190716408451,0.880017378866844,0.9372677968267576,0.9583415065327456,0.9116470177892212,0.8670763026792512,0.829554110295819,0.8025100820679787,0.7725041643014705,0.7417294289058776,0.7109465761758154,0.6786286736697213,0.6419859275507935,0.604459602750802,0.5571585055905923,0.5112539763160848,0.4645550612874483,0.4185421644351801,0.3726223097752978,0.3243581956349002,0.2764407721049493,0.2292071847617096,0.1830326351949143,0.1354792133442417,0.0929742002101099,0.0752055181233284,0.0992917398224471,0.1441283144398077,0.1933767553270038,0.2443296074666514,0.2966135375494703,0.3492005465273873,0.4086520792960524,0.4622806138330328,0.515367227619935,0.5667033353902009,0.6160742135355994,0.6647400451447281,0.7088212168815979,0.7461343331580026,0.7719168327412849,0.7713434555879208,0.7570044062543877,0.745287389792634,0.7377259039122055,0.7478875698133522,0.7598326620847415,0.7729299422858447,0.7839488610963441,0.7942285063352317,0.8035558063337518,0.8147598578738038,0.8193730821953733,0.8117410088397448,0.7920348968461313,0.7833143634691444,0.8038078414315843,0.8352068726342732,0.8618163510630981,0.8788924764782486,0.8811384365833901,0.8398046654794054,0.7866403318131157,0.7319264302088078,0.6749213384794093,0.6137509614180447,0.5595181683766774,0.5013969638962226,0.4398691223778996,0.3783281244803487,0.3193376250455448,0.2657606064955304,0.2047623501396827,0.1436695476718017,0.090016934855714,0.0466583095928723,0.0677522193369319,0.1217497697296932,0.177022573879948,0.2384111369798713,0.2993939579971207,0.3529400763638599,0.4119765315589134,0.4735179800714024,0.5350697068225172,0.5964624084858732,0.6517937549657753,0.7086796032841203,0.7701764085076472,0.8317281352587618,0.8931704341679698,0.948969306918525,1.0000000000000002,0.9866273480775358,0.9329345017528424,0.8836165980146242,0.8368198503017596,0.7985391956712307,0.7717575101132346,0.7478784271606638,0.7184632975971714,0.6872206181107223,0.6504226665976665,0.6134759835457249,0.5736862706706527,0.530174732237338,0.4871481464838247,0.4408345099219879,0.3886384811888801,0.3402601032043524,0.2918153105606598,0.2467570079343997,0.2000916806154051,0.1574431205480744,0.1170877383340773,0.0975076671610863,0.1219054694410339,0.1668506661963986,0.216109150605757,0.2653960824829433,No
2,0.1023097440410083,0.1150952853742056,0.1400927889574114,0.1646601360456622,0.1721350282802468,0.1500779285983003,0.1226786552619096,0.1034312297672505,0.0983536331877172,0.0911938687719744,0.0681176065423034,0.0409374983627985,0.0212723322238945,0.0174639341578221,0.0337236018068951,0.0604122804859121,0.0899710192271163,0.1205948851017257,0.1499391566385434,0.1772099624098773,0.2032976431422337,0.2292144962593678,0.2477354146474162,0.260274092049136,0.2628622052459302,0.2617829908293683,0.2657929874131319,0.2716551352529042,0.272279026961024,0.2722796821719213,0.2721927693727002,0.2683742744594506,0.2570031035410307,0.2371599744568857,0.2191078389959546,0.2174645564375208,0.2380779553365561,0.2645972925458877,0.2860138477195744,0.2833676826080056,0.2763030910494177,0.2723887333906722,0.2707982908281379,0.2641249413183419,0.2592038708141924,0.2488911638727053,0.2214420415794353,0.2102580092986277,0.2326349660396736,0.2676563072111853,0.2989868058748759,0.332876075359207,0.3686482357153902,0.4044283826012134,0.4395500828373744,0.4703066199161965,0.5052039429738748,0.5409833394859707,0.5767641256051541,0.6125449117243376,0.648321285603795,0.6826896080141982,0.7136658794225881,0.7490993891348141,0.7848800154949183,0.8206608016141017,0.8564410662326836,0.8916636846884247,0.922455475216083,0.9572166629881004,0.9921626993978816,1.0,0.9712659211382726,0.9379495382390628,0.90219153456386,0.8664107484446764,0.83068143279479,0.7980791958543276,0.7655811358676692,0.7298564307932796,0.6940759027464545,0.6588027455615015,0.6279830934024495,0.5932993315702355,0.5575213270226991,0.5217405409035156,0.4859597547843322,0.4501794089308193,0.4149612245289944,0.384191816543614,0.349475955601688,0.3177002377058344,0.2939309240072933,0.2665320319416691,0.2385889333418671,0.216563043086472,0.199537451337763,0.1911669408107015,0.1901221036849645,0.1802598920248572,0.1614235568575136,0.1373541733353624,0.1119556799805159,0.0879253334531727,0.0623754755553515,0.0381470968379245,0.0149016329083615,0.0,0.0053329292950992,0.0292425090715574,0.057378779387563,0.085991796748756,0.1146660175277155,0.1444431296938969,0.1726841089180649,0.1991688635010127,0.2256304231969492,0.2502387393319274,0.2630407804874697,0.2656669062090351,0.2635257882691011,0.2637917711289876,0.2695092164346857,0.271354721630104,0.2679135450817791,0.2718387800049304,0.2665747287112157,0.2494268173580325,0.2304455775889267,0.2168500700960138,0.2278608476752359,0.2533370177973681,0.2798766241563779,0.2945206403195943,0.2819338220171394,0.2725434155132158,0.2685790564382224,0.2627235310964033,0.2584987882082992,0.2531163852233045,0.2423054961151112,0.2172253527822092,0.2032012248726669,0.2228763027431834,0.2578265718280779,0.2925686940586331,0.323358980108434,0.3586021453935848,0.3943825808076082,0.4301633669267917,0.4659367228382844,0.5001098944104712,0.531222953946282,0.5667177828914685,0.6024984706973726,0.6382792568165558,0.6740438606209496,0.7075499321659737,0.7391984442610042,0.7748335744679538,0.8106143605871368,0.846395133649088,0.8820368284996678,0.9137659545003374,0.942433506669655,0.9301179967321168,0.8947725873995502,0.8589934427001609,0.8241981217481369,0.7934151445826882,0.7582177556818421,0.7224375204964495,0.6866567651001663,0.6511087487341358,0.619830958522749,0.5858724528725998,0.5501024167258695,0.5145108588008294,0.4830491528275678,0.449316056348829,0.4141662960339403,0.3834112321568332,0.348791020917601,0.3175399030460479,0.2855168467611866,0.255689493145711,0.2312491824854736,0.2142117797826763,0.2016006673124202,0.1940426441619513,0.1840577230687918,0.1651694577819492,0.142766295425167,0.1197005558285908,0.0941218799086316,0.0699609685800187,0.0466027790404784,0.0275163132828432,0.0199029988718679,0.034496112718745,0.0604471765258354,0.0874180781976355,0.1158252618031073,0.1444287641664402,0.172661522517503,0.2011709632658154,0.2304856049253325,0.2533198950828954,0.2681200311718847,0.2722159362973446,0.2722796821719595,0.2722796821719602,0.2722796821719608,0.2722796821719615,0.2722472908364888,0.2693846600054181,0.2627621181425157,0.2468974256143539,0.2265580620209395,0.2095148516372431,0.1983726089621178,0.2114293812412886,0.2424276241000929,0.2689146803865478,0.2765357508381758,0.2679937274692952,0.2657206217411507,0.2644512068248092,0.2594148189762093,0.2547604136454111,0.2464198403356108,0.2234434726944392,0.2043647965309081,0.2216997685822757,0.2529555829316905,0.288585828761924,0.32436656726061,0.3599155148606079,0.3912119980601338,0.425148442437059,0.4609209325325034,0.4967017186516869,0.5324825047708708,0.5682092589899261,0.600759665869006,0.6333113383756142,0.6690368224222663,0.7048176085414499,0.7405933788273147,0.774922671070075,0.8059185198846326,0.8413720736627679,0.8771527123120322,0.9129306390831392,0.9461435200620416,No
3,0.048606697330457,0.0892187038344205,0.1439797283985757,0.2004519081066309,0.2504692433812758,0.3032254138117887,0.3598792220427469,0.4165640628302616,0.4730138030742359,0.5219439153579679,0.561554029710434,0.5822691314962056,0.6082178076874925,0.6118472879327403,0.6527286511159047,0.7075136739692187,0.7641942595938713,0.820879100381386,0.8775638511484529,0.933451315672302,0.9550774164275456,0.9133026129233744,0.866049832442263,0.8231200311073572,0.7863134772628233,0.761060838845891,0.7401067467390414,0.7173528306206469,0.6985481084970779,0.6726151414905541,0.646931580918753,0.6090433846072905,0.5790011070655094,0.5510002758151198,0.5383348365744016,0.5510502401705362,0.5808797383507973,0.613366096558517,0.6455045261553092,0.6766432041862624,0.7089489080170883,0.7355222098937837,0.7365673618375663,0.7290993714957719,0.7165837955395749,0.7124051140522281,0.7265907504313993,0.7411615262309219,0.7527618584192892,0.7553297959018999,0.7633172625225353,0.7596523627599481,0.7383886906122732,0.72135448782225,0.7220256966721126,0.7387278274637674,0.7659010757739211,0.7820457687365108,0.7853135406192657,0.7711795555874192,0.7288001603254841,0.6771559861876371,0.6272077267576264,0.5744315270931475,0.5182037407783411,0.4692159628193937,0.4153157719224281,0.3638279798903183,0.3126227572794269,0.2584737568126205,0.2097894148376085,0.1627259046169165,0.1236611864048951,0.0738806531226285,0.0438085144166764,0.0691280601514265,0.1236250032896995,0.1803064055749883,0.236991246362503,0.2936760871500175,0.3503609279375321,0.4068294869504272,0.4567730733248969,0.5084286016309498,0.5494443687070985,0.587325622583222,0.6254849856008216,0.6711269228597083,0.7153809539423028,0.7624875657702956,0.8050889294497594,0.8432753573806153,0.8862302982520556,0.935822323626202,0.990762088766424,1.0000000000000002,0.955261150893673,0.9061213313445908,0.8572028076348555,0.8158751458284559,0.7782905129454449,0.7473256950606497,0.7212552241973238,0.6983295321770802,0.6752132572169471,0.6514393847722537,0.6222005241744382,0.5896168765632723,0.5569233455305114,0.5276779565518521,0.5065527884021765,0.5055267410443618,0.5245020437906718,0.5579372755632466,0.5949621625423867,0.6304762502549381,0.6727042440480551,0.7034364163871893,0.719698013042591,0.7172345361379513,0.7101162814128903,0.7099165989450757,0.7162762657548059,0.7309498822194043,0.7423955660408383,0.7548427469543937,0.7608983111744092,0.7678438763051227,0.7721406259914114,0.7496804636955612,0.7266397596889707,0.7267973712088014,0.7423381670432689,0.7643668145447455,0.7847841344938749,0.7956216919246792,0.7942452253394088,0.7663355207004878,0.7194654563845522,0.6658703744950045,0.6159502851857739,0.5630886177740722,0.5064740311215061,0.4541852196639244,0.4037383615779726,0.3491231472952909,0.3006142668444154,0.2446820878050895,0.1879975271511365,0.1313182087585063,0.0767219766883007,0.0288426569746598,0.0,0.0295177031922253,0.0808559122404275,0.137403404197016,0.1889345031821534,0.2401077493014152,0.2966930464423418,0.3533778872298563,0.410062728017371,0.4667475688048839,0.5234322175907444,0.57952582897308,0.6282012707397551,0.6826577411495747,0.739336214720856,0.7960210555083707,0.852702617219127,0.9075591239206682,0.953253118565926,0.9548430691175798,0.9099197714744602,0.864145086681207,0.8206485130106702,0.7783408338959406,0.7519588188253179,0.7278330709655856,0.7077407080593976,0.684784030327594,0.6604716240547839,0.6320460602976146,0.5981734838543951,0.5665805955999768,0.5337223100550728,0.5156935416883432,0.5207175876761674,0.5413805325373846,0.5779537970046922,0.6129848446830897,0.6483083776315279,0.6805733697976817,0.7097963674206562,0.7183638801490351,0.7064534562624158,0.6991920411680475,0.7000544666930135,0.709270266068436,0.7151592703161944,0.7289955561356827,0.7324897174249725,0.7407388684149114,0.7374069929166669,0.7161492275593311,0.7100152837667777,0.718540462939214,0.7449148448801004,0.7711018493349862,0.7848019038401619,0.7905487702619414,0.7771609283157683,0.7346929109414215,0.6871351433735566,0.6320942079435778,0.5823537452827618,0.5292712861907396,0.4731186071347295,0.4242845059376661,0.3700934391825994,0.3170549066492749,0.267305836491899,0.2108584299575271,0.1541735891700153,0.0976047283891088,0.0469090844690145,0.0113425784385334,0.027562518640342,0.0796196388495038,0.1362195845028642,0.1879643360423644,0.2389297630018976,0.2955032596792211,0.3521881004667335,0.4088725437523579,0.4644496964733602,0.506186903494678,0.5572788604809029,0.6110761024369207,0.6601816619375231,0.7164753119145286,0.773160152702046,0.829844993489558,0.8865291897830516,0.9422457490417068,0.9835251129777643,0.9682512030143766,0.9198110700478022,0.8738726404652533,0.8271577873762421,0.7875839119334465,0.7628945866550303,0.7420104818238096,0.7211498849521916,0.6997097849420848,0.6780898061558465,No
4,0.5722605321838654,0.5915362135196212,0.6330466447213225,0.6595195245093943,0.62080999001404,0.5618827496117089,0.5027656496306863,0.4436485496496634,0.3845314496686411,0.3254448500828943,0.2704053650719185,0.2183634545352513,0.1597071008419988,0.1098850841799063,0.0898170999305185,0.1229473536373588,0.1749451175412557,0.2339214702918772,0.2930385702729001,0.3521556702539223,0.4112144972318707,0.4654146928438776,0.5179025380942828,0.5639132153477351,0.5961757959310716,0.6498767180520495,0.7089600127263727,0.7680771127073949,0.8271932200873717,0.8852434625800756,0.9356240626996184,0.9855515595713225,0.9836596562742336,0.9624722042494755,0.9449200367237504,0.9273473920981063,0.9075575573963092,0.8884888692848087,0.8621192470491279,0.8359734899946278,0.8006168816345838,0.7610721076332858,0.7220872186729006,0.6942013676885657,0.6876366744987121,0.7110505832056022,0.7533096594826172,0.7894263834469608,0.8306036265181111,0.8674943696749156,0.8992779833503142,0.9204814113986928,0.9200858202449564,0.9045465959493192,0.9109143426962618,0.9132475735520184,0.9136822375823848,0.9231234524272464,0.9265133252088148,0.9307694683737744,0.9122475677225876,0.9098823502871868,0.9250870260335378,0.9420389756161088,0.9483413617716352,0.9343258683947916,0.9002214378892299,0.851081153262887,0.7946988601941041,0.7432168687131742,0.6875231755131419,0.6284253909187605,0.5709039765782644,0.5205099664791273,0.4624737609388891,0.4033576970907595,0.344416228217,0.2920422221848073,0.237364410592874,0.1782923686456108,0.1195755497039492,0.068432204996286,0.0147202709742699,0.0,0.044349317893914,0.1031638541636266,0.1607614049392833,0.2110511996182231,0.2691152792732674,0.3282315791118524,0.387348679092875,0.4464657790738975,0.5055828790549204,0.5646990408497041,0.6227668295329916,0.6731735274004642,0.7306508107959897,0.7897653074810904,0.8488814618238059,0.9057025768517052,0.921249134724317,0.9133682158034064,0.8960948398808728,0.8794744732737712,0.8632078048780174,0.8471612942971694,0.8229587659512396,0.7979466728698403,0.7660490852029289,0.7286551194081634,0.6929578476711933,0.6540760779570711,0.622694294731662,0.6100317813167224,0.6372068540789784,0.6738108893963319,0.7152491749024987,0.7595113514403757,0.801347149310452,0.833171891635258,0.855481474868566,0.8672940781912826,0.870075470782351,0.8774527403949786,0.8693606529259512,0.8730654246252347,0.8847746373615777,0.8944009909231716,0.8836214180511208,0.8797502399704491,0.8933560676305716,0.9073954501702316,0.9212968881390382,0.9328886192580366,0.9042888504914108,0.8537029453959448,0.7996437406256256,0.743601719705284,0.6924157805550386,0.6341064178702187,0.5827614748897718,0.5268977859339148,0.4678120988725436,0.4118987299423939,0.3605654099710305,0.3018479489636299,0.2427388644536678,0.1863535328718939,0.1361942722826969,0.0992818611382628,0.1181929813003581,0.1734731258572865,0.2325799324708704,0.2916970324518937,0.3508141324329155,0.4099312324139383,0.4690483323949606,0.5281472238036891,0.5837954297675374,0.6353251451116084,0.6941136608401091,0.7532307608211326,0.8123478608021546,0.871464098054779,0.9283270971998748,0.9414878054663156,0.9237291589020962,0.9117982899111912,0.8999890041657086,0.8879595634557422,0.87131255054123,0.8484950260759054,0.8154983977728707,0.7799132248369203,0.7468935692795944,0.7124946732095132,0.6885605669931694,0.6798567057760199,0.7024758928243044,0.7410641494208416,0.7846650077586621,0.826283116650157,0.8662054207059335,0.9044502131892872,0.928428589242565,0.9367667440934656,0.9424879374667604,0.940671349976572,0.9498893555457986,0.9543413864541171,0.9547978202127384,0.9733138312493456,0.9660684552451052,0.9595359882208188,0.9704466378966649,0.985049988973923,0.9991698688627622,0.9915506370518752,0.9639214366760344,0.9164617269251962,0.8702620198373601,0.8251257105851284,0.7744738542455971,0.715891148423133,0.6568863609572533,0.6037481583229154,0.5498761897832143,0.4908259630233884,0.4317088630423678,0.3725917630613475,0.3134746630803215,0.2543653476131366,0.1979441501720842,0.1472784564145837,0.1028027860213733,0.1101245978226379,0.1618835839240311,0.2192488567675503,0.2696206883318766,0.3277850312896517,0.3869014998192333,0.4460185998002588,0.5051356997812797,0.5642527997623055,0.6232354524268438,0.6762405484852199,0.7302661284433165,0.7893181282074517,0.8484352281884722,0.9075523281694982,0.9663500945850836,1.0000000000000002,0.9755600373054348,0.955248792810194,0.9429036062552218,0.9292000077993748,0.9034065281211184,0.8858879062000455,0.8607416456016481,0.8327781210988949,0.7978936613304921,0.7590550493991903,0.7229103270555601,0.6926373091170883,0.6872851675112155,0.7120642984498096,0.7540802274899829,0.7940354818040487,0.8334356048496052,0.8706886141444423,0.8976060673353234,0.9112727976243676,0.9132495952215848,0.9132538639089792,0.9132538639089802,No
5,0.2270479151767797,0.1922780878527603,0.1537986230259664,0.1161307662701718,0.0745545233088433,0.0406379122990112,0.0207267423849648,0.0422670010043486,0.0802176139682893,0.1179705318587764,0.1539082528352626,0.1935010749105039,0.2282113863104187,0.2593784470418609,0.2846766299372023,0.3098562588277829,0.3395019874254954,0.371884889275945,0.4120577565370102,0.4547692545881268,0.4983862579629692,0.5448578902305592,0.5895796024063453,0.6362275647749074,0.6850597840527681,0.7285312639352182,0.777131197358802,0.8252556887179914,0.8689038140785468,0.9171936191851496,0.9590561682426766,0.9736932980851024,0.9345630553919122,0.8849445843879316,0.8382954108841536,0.7935401426904178,0.7439720702325581,0.694228908536997,0.6444857468414353,0.5947425851458743,0.5450329794682625,0.4983838059644838,0.4536285377707489,0.4040604653128892,0.3543173036173277,0.3045765939202527,0.2559712278273878,0.2125004390709908,0.1652890481771547,0.1574023591613722,0.1973766965834391,0.2463658332554372,0.2911005435062941,0.3350497907806145,0.3741649411632004,0.3979884173710935,0.407571839857954,0.4027135728845912,0.3812796744954436,0.3524068208578943,0.3404000104238152,0.3506455481016188,0.365967522131152,0.3715611011785469,0.3675574360663853,0.3563421918585063,0.3450851831762063,0.3324451829436337,0.3204714217848639,0.3203152101386282,0.3290383848371234,0.3347023492257981,0.3249810836008666,0.2985396080072333,0.2670705546386966,0.2316653226775022,0.196061311027089,0.159562644836773,0.1206375488362367,0.0829690833073384,0.041686703290342,0.0072957226944641,0.0,0.031570659950751,0.0687088790326193,0.1060160145795052,0.1436832666694192,0.1837677532905883,0.2171993405864964,0.2466146926375829,0.2722390596553738,0.2972877569051166,0.327323531627639,0.3612303754851451,0.3963848659876765,0.4302160703193112,0.4735147214971442,0.5200976876040653,0.5659801706396703,0.6114225558378279,0.6606476217821755,0.7045197534122702,0.7522670063638495,0.800384107870195,0.8440334443659656,0.8931383135190218,0.9390482731592132,0.9821435423383952,0.9979972300754988,0.9594351054558712,0.9109228568189272,0.8674513769364762,0.8185856016406667,0.7688436510803203,0.7191004893847592,0.6693671695405277,0.6216144839196673,0.5777423522895724,0.5284181920238882,0.4786752078562124,0.4289325153768479,0.3797639352073929,0.3361145987116218,0.2879876553539464,0.2383490206490031,0.1929797314479573,0.1600742006224331,0.1887416323596231,0.2373713287926993,0.2808227199484669,0.3267283373397609,0.3662934156438011,0.3955890092139651,0.403926279425792,0.4022213365318041,0.3825272114725788,0.3532752761673869,0.3363385038052968,0.3436440191664507,0.3613927396025795,0.3651643635991481,0.3580403333966482,0.346579687583521,0.3398572898857961,0.3287553049296114,0.3270277083704223,0.3308694426878584,0.3375394911249689,0.3349640780746632,0.3133631681351549,0.2808928446135601,0.2455650293708626,0.2096329592027701,0.1723400526456862,0.1350335194609115,0.0983857727781156,0.069530895054646,0.0386354375547806,0.0215649379194595,0.0505642006871944,0.0882231439173655,0.1246325594166302,0.1604787529146782,0.1958049728661217,0.2293733651763236,0.2627841461040709,0.2888196887196534,0.3136947551732494,0.3392211100905029,0.3731697495103792,0.4179964901680384,0.4621741751167831,0.5066743772956825,0.5531484171797871,0.5978701293555733,0.6444992141326684,0.6915739932603231,0.7359364761521856,0.785005570403033,0.8288776576511565,0.876629132136802,0.925484888053396,0.9684442490500484,1.0,0.9820542898683712,0.9346821358862912,0.8880385725796798,0.8432833043859442,0.7937152319280842,0.7439720702325228,0.6942293777531583,0.6450607975837033,0.6014114610879309,0.5532845177302552,0.5035467887039748,0.4538036270084136,0.4040629173113383,0.3554575512184736,0.3119860713360229,0.263120296040213,0.213397974260233,0.1709365060509629,0.1891728656014468,0.2378307917518591,0.2816974463307018,0.3278136473591082,0.3683099040834661,0.3974640292567779,0.4084221127134102,0.4019580483335714,0.3849098627469876,0.3654616278952989,0.3533735436117229,0.3636340503565283,0.3760177394653208,0.3767007879478961,0.3761242236394999,0.3688827166037105,0.358739432511846,0.3446146060268324,0.3356939695155976,0.3370460094067389,0.3481270813642725,0.3510859228363108,0.3361272415387064,0.3062484547531878,0.27332216486798,0.2387422148055278,0.207015049239106,0.1779647641727064,0.1412495540636946,0.1039204133244002,0.0655533545833955,0.0366547741514504,0.0525942945750201,0.0909448086325916,0.132936316984678,0.1691119032542518,0.2071247461684475,0.2170787122946189,0.1857963098383093,0.1871955257568369,0.2231100264794798,0.2365025548167507,0.2568702590740048,0.286584912386665,0.3113048355695542,0.338517039119578,0.3675548596675713,0.4036752199393691,0.4444689517927627,0.4875211660372591,0.53405445044056,0.5784093067135618,0.6237439805853933,No
6,0.3939376194326047,0.4155123565798969,0.4462994613713879,0.4649724559926571,0.4356335251427078,0.3944495436924065,0.3507797666104276,0.3110398303423477,0.2675347562839201,0.2244516310252047,0.1845258882141114,0.1405377328955505,0.0962882625946535,0.0556631126906544,0.014947765211969,0.0,0.0325428165364359,0.0767117615318957,0.1211190625067757,0.1654335493560308,0.2065385983746308,0.248161780660317,0.2925195195698854,0.3369256549302819,0.3796956267811431,0.3939863559221155,0.3966725784798276,0.4245571898470077,0.4571361856685405,0.4879853118473225,0.4831335593580521,0.4554972685797687,0.43464317357603,0.4082373799424956,0.4188198320713844,0.4586101282590442,0.4941780227295573,0.5051816166455375,0.5204961542264457,0.5601197020601555,0.599686333116693,0.6358905865022001,0.6761852166260583,0.7205443462931101,0.7649516472679901,0.8093583726086068,0.8530517768111799,0.8888253530411542,0.9301137749596634,0.970927266416192,0.9767334993869828,0.936709368438388,0.8923112002289487,0.8479038992540692,0.8035374067203486,0.761790811133667,0.7208606948521236,0.6794740888864966,0.6412798692946348,0.6027708018379175,0.57024078079471,0.5428079412616632,0.5256397855062295,0.5165392674372276,0.5007869345985583,0.4775147237299758,0.4509141867682,0.4226532062620215,0.3947664525677754,0.3692318402357456,0.3657772692749352,0.3888296848932556,0.421971782589685,0.4580028366543193,0.4950428265306715,0.5343479526687204,0.5725715756637869,0.6078759860339727,0.6411964506976114,0.6687095402649798,0.6662476353398746,0.6412974246427795,0.6186878955173637,0.5946280776727698,0.5756618585495402,0.5641216987627725,0.5661769227399792,0.5774497988050372,0.5830680847347315,0.5784687996692534,0.5751983831212187,0.5749856117014763,0.5801360930344487,0.5822169489752426,0.5798646647977409,0.5735088256851198,0.5570319865472763,0.5394325332748352,0.5426715802869594,0.5583247211479222,0.5659541942360652,0.5348190575966946,0.4907475188143615,0.4477634983776642,0.4077744923142027,0.3639150342566793,0.3252721195509134,0.295484552207121,0.2658930559677503,0.2363035381294158,0.2060878772964109,0.1701942818215378,0.1276269184804747,0.0832449910783591,0.0405613631850297,0.0061568779943865,0.009056385036313,0.0455690828463879,0.0896091335048713,0.1340162324269467,0.1784235334018266,0.2227236937143748,0.2636825808605737,0.3054556221546118,0.3498239904649364,0.3942312914398163,0.4386385924146961,0.4830458933895762,0.5274531943644561,0.5718604953393359,0.6161488573275374,0.6569883698413247,0.69888816507211,0.7432609524024457,0.7876682533773255,0.8320755543522053,0.8764828553270855,0.9208901563019656,0.9652467790662526,1.0,0.9816801234169666,0.9389107458644572,0.894512505047348,0.8510844169869748,0.8113047193824058,0.7675154755715036,0.7231104928029856,0.6794572014955583,0.6401862244749784,0.6016758088506401,0.5672423631310474,0.5423133421208494,0.5246477844197815,0.5111984877316061,0.4962743693857966,0.4749251367817542,0.4465479480491621,0.418504782838924,0.3881645661950594,0.3585049873044463,0.3285853385926257,0.307930172958114,0.3194610355921599,0.3461726643551884,0.379003474846694,0.4148758832003162,0.4523399842085476,0.4841260715077123,0.5133147194712201,0.5381284214968917,0.5571036087284061,0.5704101909495131,0.5855483206719366,0.5977164408580983,0.6075095463810808,0.6151019571818716,0.6118248805383789,0.6042154685060025,0.6024621592036431,0.5960944879514752,0.5965362766685437,0.5969568316800856,0.5915807404061905,0.5710374711793796,0.5623286067511964,0.5734925178997282,0.5911532141190053,0.5776122565019438,0.5393516462278977,0.4959176154069455,0.4561103031465358,0.412942501692782,0.3724299424588499,0.3301638383541628,0.286009653635467,0.2457087735052023,0.2031761326654571,0.1587846610235648,0.1145424068599595,0.0739631791628989,0.0320275197737341,0.001742584326729,0.0217395145525609,0.0646976324863943,0.1091012097668363,0.1532994384029873,0.193702448639742,0.2361122053819458,0.2805017021444846,0.3249090031193655,0.3693119818128064,0.412130849710225,0.4473761262582492,0.4896691911160677,0.5295942960981571,0.572672464404315,0.6170738694342931,0.6614811704091738,0.7058884713840531,0.7502957723589337,0.7947030733338126,0.8391043127989845,0.8814822315649381,0.8930767677285664,0.8590456540388968,0.8153816167636357,0.7750876021195675,0.7330813090798053,0.6932995894301822,0.6523798738490553,0.6155650661975433,0.5828116049061393,0.5568047212660877,0.542510592628591,0.5283128928690767,0.5082837461833353,0.4867644339692342,0.4596642857085093,0.4299328605741535,0.397223297721074,0.3669655809203989,0.3406555491879092,0.3286074627224173,0.3445182001974145,0.3759565078885291,0.409381105220526,0.4438958507025011,0.4770024632847595,0.5085099947028902,0.5359280881079261,0.5546517359369784,0.5573403439762387,0.5503603931114321,0.5453369435978678,0.5506952487025462,No
7,0.5494552542123765,0.5593277002087076,0.5595840755264656,0.559583937617897,0.5589574311828933,0.5447053122978431,0.5160029171746956,0.497090000837336,0.5032351246216002,0.5253176126625827,0.5298457204303948,0.5484494380655729,0.5722113126369797,0.5684326391153469,0.524607690039157,0.4687724404567204,0.4079923487527188,0.3528013019942126,0.2899759389163563,0.2338263669256188,0.1670122974081125,0.1090422640902901,0.0513091059778259,0.0061383087510895,0.0,0.0461444239169761,0.1118485017141153,0.1791818851789997,0.2363704530592918,0.2989992807297019,0.3666393621633381,0.4343021657536998,0.5019649693440615,0.569586553169219,0.6315265322272587,0.6893104782217989,0.7567577141140167,0.824420517704378,0.8920832602967197,0.9589723028648898,0.9796416230606648,0.9294917082670257,0.8673918280233184,0.811693428158283,0.7486313442427681,0.6934849656245161,0.6366695575882555,0.5866883781048151,0.5460454545370519,0.5120306824907535,0.4818555213797322,0.4592449215890477,0.439950816547757,0.4119491948931464,0.3748583495436666,0.3397558305973684,0.2991506357884934,0.2568740919603267,0.2149796344503856,0.171932211764926,0.1268174680056844,0.0817497355901886,0.0410594493885572,0.0216069884991121,0.0366504262417404,0.0765874518231601,0.1253024348793445,0.1750062365622571,0.2291190952201423,0.290145049584313,0.3409504000589809,0.3772009028254932,0.4172881959952006,0.4623091540837265,0.5039812359755569,0.5319249462281657,0.5466812304521671,0.5588697672855236,0.5558968259021491,0.5437609644533521,0.53139815388371,0.5247768253714002,0.5128557220659617,0.5123177312210032,0.5239968035752951,0.5385048838676929,0.5340179566528738,0.5496385825671228,0.5594050775790018,0.5595840755264931,0.5595838739678158,0.5588376189164403,0.5457135881179935,0.5266981913252384,0.5129690255077266,0.5261127191883901,0.554231387296312,0.5621701717677614,0.5868269680102562,0.6054736231030331,0.5903213478627642,0.5514145110639799,0.4945745590868844,0.4369381069194262,0.3815255271839932,0.3148344983818325,0.2471725109996159,0.18058474979903,0.1252113765803506,0.0646789809257817,0.023140337279774,0.0157227331072311,0.0550993471989045,0.1150896370995737,0.1826794478973661,0.2483951195928075,0.3036522777335793,0.3698119940074682,0.4374738596720235,0.5051366632623848,0.5727994668527465,0.6404512546369365,0.7041444176415319,0.7604715003375104,0.8275923070978659,0.8952550152130638,0.9626535894619384,1.0,0.9490550779763538,0.8939699302322297,0.8288809495778908,0.7735789675161415,0.7129829858707399,0.6560230799668858,0.5958144406296038,0.552756596571701,0.5206098692584304,0.501344960347553,0.4787031187816426,0.451585298821946,0.4241706015940321,0.3906754562066208,0.3550138071209114,0.3196456117838906,0.2760716506737575,0.2340339679311629,0.1777470124816416,0.1348814122465231,0.0901695910017759,0.0475875801557408,0.0150148228256794,0.0115130097902307,0.0432830427221548,0.0933590169654245,0.1441688732951331,0.1949789099668164,0.245744065910666,0.2992156575163354,0.3510824771458241,0.3985041781179719,0.4467803240417591,0.4884837232968873,0.5311893486151327,0.5586743819175473,0.5735220535085546,0.5686936169198229,0.5726641147173313,0.5657291353601765,0.5511588904490798,0.5299846043774212,0.527870072506647,0.5296758680930789,0.5429614618999397,0.5567906787004144,0.5701862537167126,0.5753358298580067,0.5680225786049813,0.5659229192670887,0.5752138130996776,0.5682844256987205,0.5424413162939166,0.509042025446262,0.5040016681477115,0.5225075559651069,0.5451462957002784,0.5603754323779628,0.5845955387798085,0.5911447334750117,0.5761899074275401,0.5271440051839189,0.4628386481031494,0.3957266997332436,0.3393996170372642,0.2757134407328814,0.2115459166647153,0.1556645051354661,0.0975180296529214,0.0568169081390732,0.0637798807194154,0.11429518364818,0.174968155954025,0.2335856662587394,0.301091021185226,0.3687538247755872,0.4363273925669233,0.4961899169366734,0.5559873414100132,0.6235465695455424,0.6912093731359041,0.7588669140286899,0.8238840153351874,0.8793074690240106,0.9457763098764582,0.98439068587737,0.9341391424565586,0.8790667108935315,0.8127911382014834,0.74673936909601,0.6916729187287207,0.6350830950672375,0.5875679090576655,0.5504593778653799,0.5229663633529462,0.4987415159881774,0.4815391766280661,0.4621152061478923,0.4378939654991516,0.4043886600079101,0.3616159665649814,0.3199125673098542,0.2716400261109393,0.226203357522436,0.1810937465066189,0.1361251564957233,0.097151348769739,0.0710964751867879,0.0760626066153209,0.1127721757624899,0.1608121319692372,0.2114926349962211,0.2621759956944385,0.3119843684935848,0.3597462191814244,0.4119734882949886,0.4630642577346302,0.5038356683607121,0.5464754868773429,0.5737967338208847,0.5901075912231621,0.5910801196010378,0.5779110199568755,0.5604072411588237,0.5574372898518409,0.5449484885823668,0.5437264631504499,No
8,0.9063415799756104,0.8555386737184527,0.7930294759415957,0.736919266310962,0.6826628187503672,0.6201598074333714,0.5575323055388077,0.4949048036442445,0.4322773017496817,0.3697080011219884,0.3139525589651293,0.259348891267829,0.1968333441554972,0.1342058422609344,0.0720248839390969,0.0454838881142718,0.0972300433969599,0.1481460653458857,0.2098309447731483,0.2709292230560387,0.3151155360894484,0.3243288295207818,0.3116446921658182,0.2929477564094576,0.2904391336156204,0.2719765134744869,0.2420075592834956,0.2279417443809661,0.2540345731334033,0.2844323641242869,0.2999183837742274,0.3094485728326184,0.2984658141823799,0.2971851786418802,0.2961320761165384,0.2894502966692598,0.2997472001019323,0.3114347188710429,0.3160429175527892,0.3343148756075149,0.342287960558679,0.3423220726477418,0.3352808759890262,0.3191279980560613,0.2904802882288031,0.2569528784972466,0.2219103155298265,0.1865998041995067,0.1494771349460331,0.1172675986323596,0.1087372358488667,0.1306951172137056,0.1542367440418171,0.1784293927318136,0.2094177470501912,0.2399532841801477,0.2619643342622062,0.2773999431831724,0.2862000831330933,0.3010259328122262,0.3068923748614751,0.3145953276846325,0.3306632334307924,0.3651329236413874,0.4107736029750999,0.4637214050500655,0.5192043640860597,0.5817561506112279,0.6443836525057902,0.7069368070041304,0.7625821351115429,0.8173293000958566,0.8796930908861373,0.933681087499771,0.9860857654577568,1.0,0.9630834094176896,0.9019828045859946,0.8393560640643325,0.7767361663868493,0.7176523577512115,0.6660086428160037,0.6039121064701485,0.5412846045755852,0.4786571026810216,0.4160296007864588,0.3534020988918955,0.2907767894750899,0.2300556564866123,0.1795559088128206,0.1500675661894788,0.196993360192522,0.2494014017270123,0.306086773124794,0.3517586562882666,0.3670285880845085,0.3553771906022027,0.3431159607158975,0.3313322770193574,0.3039240000330601,0.2754744013051238,0.2753886063925201,0.3071369355058224,0.325573502134004,0.3212761168095022,0.3123947406433318,0.3106938568547548,0.3000392156959148,0.3101486870416856,0.3127583344171567,0.3236382457308417,0.3273088368431214,0.3273171535273178,0.3271831001349587,0.3190624725287847,0.3028342831540578,0.2820363593050881,0.2538860915411711,0.2161202622867559,0.178327233196037,0.1409008283504507,0.1070856960554214,0.0820765533710652,0.0817395471543407,0.1111990182538651,0.1371134540730461,0.1664395477747779,0.1963209331668665,0.2145593852559311,0.2349678492630658,0.2514371049587081,0.2642085501619373,0.273398239493964,0.2921131302631132,0.306031131089246,0.3358341215063807,0.3815351257206374,0.4228817350028424,0.4641060309053153,0.5160038609623707,0.5735146609063162,0.6343928196400461,0.6851142984506442,0.7462773945181245,0.8033110538961918,0.856707498992773,0.9150478905472252,0.936661577067107,0.8988690587425849,0.8383951740090949,0.7877152519852233,0.7270975895324057,0.664471719151202,0.6018442172566378,0.5392167153620746,0.4765892134675118,0.4140325654404311,0.3584803242421848,0.3036683244628611,0.2411452558733282,0.1785177539787659,0.1158902520842013,0.0532732432017333,0.0,0.0279106947409677,0.0834925780365214,0.1379042945983615,0.20025631367441,0.2545606773960225,0.3050556083918176,0.3387368595869509,0.3402685927236923,0.3179559209380711,0.2981141135493579,0.2864995766549452,0.262376524578864,0.2444835869521271,0.2641465779366232,0.2881983544896824,0.2961815473111056,0.2848190341974788,0.2821218321914229,0.2821190035751013,0.2824208377369435,0.2922300425579709,0.2971581100061025,0.2989919880539169,0.310873094778485,0.3056081306383986,0.2971902371152066,0.2873259857425387,0.2577168822437516,0.2264037427986402,0.1942910026817368,0.1565300206973869,0.1188391120106193,0.0870113825811778,0.0833560628005609,0.1085109282191818,0.1383002478252288,0.1637676467586026,0.1947624095855724,0.2219276157969454,0.2395662225907373,0.2584678681200771,0.2711842826261232,0.2818586181514093,0.2911307927586151,0.3067488673437868,0.3256901520117687,0.3645500809114401,0.4243847522561101,0.476132342836987,0.5350665062366433,0.5921628925608338,0.645501174170763,0.7078856208988067,0.7666024687631685,0.8185827856032137,0.8805697791283338,0.9317080738929552,0.9526027011786448,0.92114408710446,0.8719881282212913,0.8107003969682678,0.7480735259255371,0.685446040346108,0.6232819521775834,0.5712235176285816,0.5126169835845955,0.4500020664367903,0.3873745645422275,0.3247470626476634,0.2621196314520126,0.2000380117054345,0.1482214852287486,0.1037969203815061,0.1400213722510899,0.2004054958569612,0.251098089307002,0.3113394535388103,0.347080692050238,0.3456523674714242,0.3360971413251539,0.3140376012029007,0.2961145957907276,0.2742323612632034,0.2541179982332848,0.2661783507366926,0.2966971424131528,0.3230122930013697,0.3273068142679083,0.3273038483848371,0.3233192199296426,0.3127100990516562,No
9,0.4798706704491873,0.4772437922015491,0.4815177627642475,0.4814572995918664,0.4755990342421214,0.4707790025681515,0.4707259650746846,0.4679498499473666,0.4602296100468377,0.4560704719938058,0.4490189441991499,0.4434796188594601,0.4455907754728148,0.4464250043497528,0.4569071417648886,0.4525912920897861,0.4424847148891249,0.4221764293090708,0.4080023622696016,0.4046772565985377,0.3857833587727499,0.3608618483582448,0.331241991300276,0.3005365298693816,0.2667300067376827,0.2323395481755694,0.1955509019406427,0.1609388274840775,0.1243101567826912,0.0895406670513465,0.0520174973374303,0.0136723416174333,0.0,0.0238437034252958,0.0529770593591609,0.0835762501693195,0.1169327933934332,0.1507360571338432,0.178896342254327,0.2133011888949287,0.2433085341933323,0.2698277497478021,0.2907493140782922,0.3135394053213298,0.3255982590592021,0.3455239742796729,0.358576055852817,0.3760157253830571,0.3944221974349762,0.4182515112213769,0.4514556578565634,0.4925849369979502,0.5383330426144328,0.5828611327948492,0.6174568843452017,0.6454644561407137,0.6765475611299752,0.7104806376512403,0.7484481134196352,0.7937341565738607,0.8328412696860035,0.8745770159760586,0.9148131407652884,0.9433996439366,0.9389176250579788,0.91698763963949,0.8733843274533815,0.827603932891507,0.7843023008031254,0.7464458006245787,0.7010608209901608,0.6552713324195363,0.6094818438489114,0.5636923552782866,0.5179063108834412,0.4739519741226372,0.4365171611550631,0.3913658662884669,0.3455763777178424,0.2997868891472177,0.2539978323812355,0.2091351776741374,0.1748089428503036,0.1826062088001592,0.2272374593645445,0.2730267984241188,0.3186216059489475,0.3573987730849184,0.3943116543594827,0.4307621982736582,0.4552606183660403,0.4732756189572353,0.4812674147370153,0.4747666160771129,0.4612720077230157,0.449049762355721,0.434542251395247,0.4156203458561016,0.4222947220489783,0.4320097620893219,0.4469837822023124,0.4441026308233837,0.4459296317192005,0.4404519031021041,0.4479531820190645,0.4408726906945619,0.438240390351917,0.4360195155927566,0.4318757247079787,0.4324122121499123,0.4274313840876529,0.4231091931175257,0.4143369329464299,0.411765386153601,0.406158937414252,0.396794742184003,0.3878469508480784,0.391051247364558,0.4022120753539595,0.4111310874568705,0.4199571109640869,0.4271136350380189,0.4218345595062887,0.4123183483591104,0.3906425066511874,0.3631768172538607,0.3337210242076858,0.3011885210808267,0.2668120032240615,0.2310288732679581,0.1947588966976565,0.1622899484644393,0.1388282419380488,0.1037402955815238,0.0712302693131319,0.0378277862019709,0.0234154391417646,0.045541320827517,0.0757692051555576,0.106279838145306,0.1368153607663922,0.1673235974332798,0.1959274344008148,0.2279713101810925,0.2596914987742713,0.2806425104167753,0.3000518636210187,0.3230950529040002,0.3375742954366083,0.3526191904388924,0.3656127153365771,0.3881547319265817,0.4130751101796701,0.4440849166460581,0.478582397110918,0.515434038842691,0.5561415426048288,0.5950841149212271,0.6370326377985256,0.6827959971631428,0.7285854857337677,0.7743749743043926,0.8200964083889448,0.860540553510154,0.9009759225543864,0.9447942213059082,0.9810236949515758,1.0,0.9786196096090918,0.938495374128168,0.8986932767325082,0.8529986694289011,0.8072091808582758,0.7614196922876508,0.7156303051336139,0.6703473068925807,0.6325487317949521,0.5890887556734761,0.5433037147272071,0.4975142261565817,0.4517247375859581,0.4059352490153332,0.3601457656723672,0.3147493956726308,0.2767427069292845,0.2450845448826608,0.2713078283916872,0.3084663872073938,0.3517819766341457,0.3789598406468342,0.4129274238810678,0.4577566632433951,0.49277089309511,0.5172409024814495,0.5207761477743342,0.5141412608012821,0.5061015346301609,0.4871076902010434,0.4776367329278541,0.461633465785672,0.4364363518579326,0.4274640938143037,0.4452768644316325,0.4547204686559949,0.4603890865547111,0.4659060704962368,0.4602367586816258,0.4599014319735262,0.4599014319735226,0.459901431973519,0.4598984237997388,0.4582416551047223,0.4555686895762709,0.4590429069179595,0.4572381379305281,0.4563781259288693,0.4491036724816615,0.4410949139981086,0.4288263683467856,0.4274181220122459,0.4303419920377942,0.4380309248135019,0.4447374891525852,0.4535366954388991,0.4609090542373182,0.4693552188223062,0.4625940561599555,0.4471481493741116,0.4264585937597831,0.4021937084210627,0.3709105249533129,0.33812702958867,0.3036309915967978,0.2848427395868489,0.2742366400049059,0.2604577357784909,0.2192599832798589,0.1815727248948691,0.144948205210541,0.1110070816320611,0.1011613935205992,0.1274600540532928,0.1573954272562274,0.1473307645433914,0.111131853921617,0.0955992234197959,0.1230820903771956,0.1574523442313382,0.1956925276445078,0.2267655879693302,0.2390577786719832,0.2661182714580263,0.259725784542403,0.238492945466322,0.2537829206849959,No
10,0.4677794072699313,0.444969034826093,0.411190912448925,0.3768696500464583,0.3440903925749201,0.3233008876983838,0.3242359601949156,0.3297093305733132,0.32736928407132,0.3367654912580304,0.3270627248254254,0.3116160856358545,0.3120112865618387,0.3198761888199855,0.3274529026144175,0.3278253551952057,0.3288473764051174,0.3295151604765314,0.3225252771213851,0.3216789054774418,0.3172526989225817,0.3166481324342165,0.3121399350689817,0.3049611117991686,0.3141741167131711,0.3266260613684053,0.3309094573628153,0.3370369910675941,0.3358144013678614,0.327753987381975,0.3111046603692886,0.2914436779218248,0.2653374388726719,0.2345484860784472,0.2036055710132991,0.1734880927534035,0.1442909955913174,0.1150883759200103,0.0845117297920263,0.0547475169277611,0.0304155666769894,0.0219650696875364,0.0434464032435049,0.0693394631685302,0.0952514553468084,0.1196929331155995,0.1430589621793752,0.1630974779474432,0.1839444117520445,0.2041551757417006,0.220422096087814,0.2334105428837409,0.245908322294037,0.2544746216126519,0.2703244417491743,0.2936472780074215,0.3215729920571335,0.3521446083570976,0.3835161412236432,0.4208150703095152,0.4526937479342057,0.4903895295274989,0.5292541664275698,0.5656336787015221,0.598275808546274,0.6369179930378681,0.6757930969367731,0.7146679893188974,0.7527483391299843,0.7846276885842827,0.8223234701775761,0.8611964870688291,0.8989543874902497,0.9270068291551904,0.9312557537025914,0.900291155164967,0.8670545304815558,0.8283036535264257,0.7900271604197093,0.7581150002100245,0.720646982094368,0.6818110661889656,0.6467401155538071,0.6129046176470159,0.5741196799419042,0.5354774954503096,0.5028585130526531,0.4702754491889986,0.4447815622251974,0.4145279333715526,0.3783310519267064,0.3466555680782788,0.323307299528111,0.3217314648108391,0.3218541285148211,0.327365993842174,0.3236957322253342,0.3054988841411075,0.3017554392830541,0.3140772850430724,0.3245494072721435,0.3305288444315097,0.3307013933434561,0.3307014144951321,0.3307014144951297,0.3307014144951272,0.3307004384782304,0.3295207062269389,0.3220157507476135,0.3185162593891515,0.313835563382459,0.3152674126006467,0.3229290991224052,0.3338477298790168,0.3395601829314074,0.3396209633724447,0.3346964064244035,0.3183031223222237,0.2907293221692544,0.2631840234895919,0.2340341355785602,0.2066720672530473,0.1759181349506324,0.1448366948337016,0.1138927825999809,0.0830088115894926,0.0524321229397424,0.0233095636312692,0.0,0.0037665166924087,0.0274786845974277,0.0533918715735517,0.0785583470797246,0.1022838393392158,0.1281017956606192,0.1518609163476671,0.176506388042192,0.1949068680341144,0.2122330635668241,0.2289195857866044,0.2463587488277276,0.2588317836384808,0.2712258097788957,0.2887018003524539,0.310645206244964,0.3393757888873936,0.3693104579422923,0.4022233176302345,0.4366130032524637,0.4754354209078464,0.5132096048712178,0.5449977081211326,0.5830914970532135,0.621965971425867,0.6608184222563693,0.6959705177629403,0.7290430870223732,0.7558035474300671,0.7894673699786205,0.8283032858840234,0.8671784320862852,0.9060535782885456,0.9449126101622805,0.9805999312443444,1.0000000000000002,0.9845208578081646,0.948149172124476,0.9155099945217876,0.8791304822478356,0.8403164445836351,0.8059236818988704,0.7721185206603671,0.7453024395289289,0.7116420616852328,0.6743813532269107,0.6424107575682276,0.6040234481938409,0.5653209778135972,0.5321997131239204,0.4990672452074658,0.4733912513270546,0.4522491632445968,0.4220889623753143,0.3863208133289324,0.3574645524760587,0.3487498717587662,0.3480469909089871,0.3429788852241757,0.3550001761540391,0.3465999553848564,0.3248304432161595,0.3206023297173543,0.3286696304825769,0.3393880228134029,0.3396725597768339,0.3396726020801879,0.3396716260632908,0.3384922614543202,0.3314964647063563,0.330701604860145,0.3302850344767734,0.3230883379028262,0.313941120649559,0.3082617790407598,0.3148597802158008,0.322906594115667,0.3308974016651176,0.3384918938119798,0.3396190747936058,0.3338431529633026,0.3155981336093276,0.2955617450626675,0.2706760547606894,0.2429656790364789,0.2137788454202385,0.1846128649347944,0.1538077978120426,0.1228639067299992,0.0915863989610552,0.0570473570546306,0.0283959750470195,0.0069562965065559,0.0140259759063585,0.039078249786377,0.0636622314265953,0.0890434373651314,0.1142160567856038,0.1419039776544883,0.1662557143777212,0.1880799084110491,0.2039183715759114,0.222533250967214,0.2362421949984734,0.251202740244197,0.2630434445083713,0.2734949096839441,0.2902351307312285,0.3156439355421532,0.3470608368074019,0.3819793622287324,0.4157407084741482,0.4545008509278248,0.4914217753380017,0.5236989203652214,0.5621581176465695,0.6010332003937977,0.639818180402268,0.673653678309055,0.7087246289442148,0.7475625976177067,0.7864374899998283,0.8245178398109163,0.856397189265216,0.8940670694245474,0.9260184088944924,No
11,0.6481235528915795,0.632304294230902,0.6130824546415735,0.5926268054324112,0.5644085681706398,0.534545891447037,0.4987718438845231,0.4656800380415223,0.4429620087869012,0.4356889745997997,0.4222832946419098,0.3959443429639246,0.3667396983802796,0.3421308842218598,0.3408047268511448,0.3623527475653028,0.3942715521959867,0.4307112970628187,0.467021619042507,0.5044387963750966,0.5427695368297337,0.5781214977123795,0.6091317013312173,0.6341470573661127,0.6471718691769514,0.6557012001176336,0.661733706694387,0.6579199663517984,0.6565952578758824,0.6655511697894606,0.6716041060387293,0.6727960512329952,0.664929380602075,0.651876900924994,0.6602551455175799,0.6647855189323925,0.6774316149159235,0.6830289841633616,0.6604679225171958,0.620193572620198,0.5771101874780237,0.5344288898629302,0.4878454273920455,0.4411520715038054,0.3954699703715429,0.3543217583436978,0.3083981261455805,0.2617037995575602,0.2150081428176915,0.1683154166658967,0.122734114726983,0.0815705762731104,0.0393171862770551,0.0375389448124537,0.0797272118643974,0.1233766760771809,0.1659267980025055,0.2125050484637982,0.2592007052036674,0.3058617571802874,0.3497002477765137,0.3915771409414964,0.4287213772558419,0.4707184231534037,0.5173646780483038,0.5640603347881729,0.6107559915280419,0.6574516482679108,0.7041473050077792,0.7508429617476485,0.7975384842835868,0.8439222886990373,0.8854216592092502,0.9120167653582248,0.8816054915150232,0.8395843531273014,0.7953816568606785,0.7534957802711916,0.71020817879392,0.6741077084256984,0.6462524588837723,0.6246412493286496,0.6070424964434181,0.588971317671949,0.5598701316454598,0.5293523778136363,0.4993442419003434,0.4673903014103019,0.4321586708168331,0.4004724407100596,0.3677737054507293,0.3435859997186334,0.343528832146046,0.3662974440579885,0.4012504917725421,0.4388314864490811,0.4754941446099757,0.5123931561133176,0.547585287685706,0.5824873267319784,0.6135172961490037,0.6341678685674773,0.6433614785492666,0.6541953993628323,0.6566498760877172,0.6501645852311718,0.6515835134098459,0.6531475467505646,0.660029155267054,0.6680784851347806,0.6654053621534607,0.652175669258945,0.6460657187271205,0.6629433532619716,0.6683935327962695,0.6824777352583643,0.6793087966962675,0.6485376008565794,0.6070699215404948,0.562627946936432,0.5209421074412727,0.4745530085385313,0.4278574764970898,0.3811624939219288,0.3350583417975912,0.2938345635411352,0.2484073556823726,0.2017158486626046,0.1550201919227356,0.1083245351828665,0.0618540111799622,0.030494464734166,0.051145090875188,0.0931581049151621,0.1397374640121085,0.1850467163794193,0.2263282402471735,0.272493506724604,0.3191886560987632,0.3658843128386324,0.412579621500737,0.4588254008203084,0.5002080988641869,0.5453365225889425,0.5920259406731186,0.6387215974129877,0.6854172541528568,0.7321129108927257,0.7788085676325939,0.8255042243724627,0.8721998811123318,0.9188955378522008,0.9655205055745254,1.0,0.9778342896451944,0.9338066399890678,0.8876170704013636,0.8462785691614859,0.8012496627085336,0.7590817473420645,0.7170220610174353,0.6789804483230334,0.6479065149242703,0.6307450847667592,0.6129474626025656,0.5894233499114564,0.5644211866836918,0.5348679877667818,0.5046856690502525,0.4731794739302349,0.4406472420454858,0.4009493915696727,0.3699217937130027,0.3461096427946295,0.3429748512765079,0.366129036357818,0.3998356807334493,0.4349441289597154,0.4719925635700209,0.50935567694608,0.5462436550456077,0.5787850379866278,0.6103319552514738,0.6400956978723503,0.6566697638314799,0.6655535598252026,0.659047733098388,0.6500243208960436,0.6435679474979402,0.6499071709982341,0.6551695003344632,0.6594360985842761,0.6528757821867205,0.6334192593557183,0.6326452170604581,0.6474287875535444,0.6591512354213492,0.6686537040319142,0.6538742747722944,0.6167035467104022,0.5713064603801622,0.5246150203148895,0.4779193635750215,0.4312360301227983,0.3865482508274434,0.3448623666847207,0.2984732677819781,0.2517777357405367,0.205082079000667,0.1584008169125155,0.1138953656314365,0.0720676376921323,0.0261354377920041,0.0,0.0246984798810405,0.070265103507301,0.1132072966481204,0.156462080876766,0.2030968662372355,0.2497925229771054,0.2964881797169737,0.3431711395909728,0.3878762893238294,0.4295337394752584,0.4759342721613814,0.5226298075514609,0.5693254642913291,0.6160211210311991,0.6627167777710671,0.7094124345109368,0.7561080912508052,0.8027797495346366,0.8468873156088487,0.8890426702344695,0.9355370633464622,0.975372700039222,0.9585463227258184,0.912564526010844,0.8692510930479577,0.8263785085151399,0.7819050337330874,0.7403461270392176,0.6986866264388104,0.6575378148064629,0.6282231090625924,0.6068777336646113,0.5909567489505619,0.5644130564963866,0.5404293311281044,0.512882030093523,0.4818489982684478,0.449366113667028,0.4147060466197353,0.3773243467125076,0.3531161985563077,No
12,0.5831506916768245,0.5984575032702455,0.6119374854315591,0.6179177302292942,0.6101743442947236,0.6039323818237594,0.5983827257105849,0.5980854486819964,0.6053285246565869,0.6173732456567624,0.6252868205752284,0.6365771441014261,0.645542352068774,0.652555941047336,0.6536046653705334,0.6582570826324652,0.663529977668865,0.6634924177218418,0.6567420210343382,0.648800378346615,0.6466113046919231,0.6523038626146012,0.6661847893652808,0.6777636379201437,0.6873579230149842,0.6832805148534877,0.6655831030539054,0.6330367230616629,0.6042417328569087,0.5722718614292863,0.5405717929239566,0.5115371413373799,0.4779956233483822,0.4456634590441681,0.41711737696143,0.3837120835220839,0.3499528447147968,0.3161934162827203,0.2824374722345621,0.2500359105152744,0.2215297066509312,0.188154386914862,0.1543951800167934,0.1206357515847171,0.0868792872727227,0.0544209135837175,0.0259948067835495,0.0,0.0080501555963311,0.0348932820083557,0.0675279397878221,0.101285835288283,0.1350452637203593,0.1688046921524357,0.2025641205845122,0.2363235490165885,0.2700829774486647,0.3038424058807416,0.3376018343128179,0.3713612627448943,0.4051206911769704,0.4388801196090468,0.4726395480411234,0.5063989764732,0.5401580238251762,0.5733834750448599,0.6018032521932608,0.6344393172386666,0.6681972127391274,0.7019566411712037,0.7357160696032796,0.7694754980353562,0.8032349264674328,0.8369943548995094,0.8707537833315855,0.9045132117636618,0.938272640195738,0.9719842345255072,1.0,0.9903048347089112,0.9592573647435844,0.93607731076126,0.9082031834564674,0.8769119288814546,0.8433941585507643,0.8145434846962345,0.7826811592561089,0.7522002192041279,0.7221736254602236,0.6944361720533998,0.676183616303123,0.655475128615209,0.6433895845680311,0.6361241439900445,0.6263944407893547,0.6157302783771359,0.6025191685351425,0.5880577618311271,0.5707926686349101,0.5526550692025498,0.5282271628450419,0.5054903146375123,0.4800757861262577,0.4622183970739175,0.4445133598163814,0.4369298332447971,0.4470071993009744,0.4671994997920463,0.488519630124645,0.5126174648241248,0.5332980468285584,0.5553876794627803,0.5743762657281413,0.5939476693237533,0.6137711899773495,0.6225514399814727,0.6284337412663206,0.6212927179183265,0.6141516108388463,0.6039079841210184,0.5965346504819204,0.5948824005540898,0.6021826612590877,0.6129577700026514,0.623131834767046,0.6337159230456217,0.639177218168379,0.643192150056455,0.6463804683971239,0.6464182643969973,0.6464182643969982,0.6463757226485762,0.6430246959307802,0.6391193864255966,0.6321953258991961,0.6215999842572197,0.6155009557972146,0.6225666399873557,0.6367010304133269,0.6487153701900996,0.659083820859905,0.6601452418206881,0.648555558034674,0.6217563205200844,0.592920203851794,0.5615511384876755,0.528484484459455,0.500200085259106,0.4672861231659475,0.4335280151015602,0.3998814042722585,0.3702938325136125,0.339228043691232,0.30548920726771,0.2717297788356332,0.2380996935515013,0.2086498469297956,0.1774319298361624,0.1436909710017831,0.1099315425697063,0.0761721141376304,0.0424197872721217,0.0116681677239851,0.0083887909701694,0.0323098577618994,0.0654683938231861,0.0992273335546602,0.1329867619867362,0.166746178233526,0.2003934142000072,0.2299061500421212,0.261046755700531,0.2947849982526636,0.3285444266847402,0.362303855116817,0.3960632835488928,0.4298227119809698,0.4635821404130456,0.4973415688451224,0.531100997277199,0.5648604257092749,0.5986198541413514,0.6323007596648578,0.6621983949220296,0.6929322837944474,0.7266586619752025,0.7604180904072788,0.7941775188393547,0.8279369472714315,0.8616963757035083,0.8954558041355842,0.9292150653746452,0.9624523242267587,0.9733319844462036,0.9440237677735096,0.9102831023210562,0.878228358437041,0.8494795416346279,0.8159991951791354,0.7834078857386111,0.7549804597972589,0.7235740119957306,0.6963677173114842,0.6705497132989406,0.6433045989576893,0.6279366257262609,0.6189764416652499,0.6144822175549534,0.6021385027018873,0.5906758333600963,0.5773318418611182,0.5604863824506925,0.5428241838496599,0.5201515633486284,0.5007155568026518,0.4783442260547326,0.4601311862858206,0.4382285614483728,0.4233723221734329,0.4202368291092332,0.4312118057670879,0.4487034874954545,0.470965913918941,0.4923580831136516,0.5161282445565052,0.5386542537219208,0.559356209695089,0.5738360922996792,0.586855739134535,0.5950956740641526,0.5917720579222405,0.5860535243983716,0.5776886324336081,0.5711640631557136,0.5762653473155912,0.5863145047579175,0.5956377855242925,0.6050501598358551,0.614142642231208,0.6185865176664875,0.6231711421457011,0.6203161035746108,0.6252658297843638,0.6312771604439726,0.6263810526752094,0.6268723241027518,0.6320422264541756,0.6323961065540971,0.6289492452868608,0.6162279116106382,0.6141732866049725,0.616103399048797,0.6288223613470678,0.6455935406081723,0.658952275774783,No
13,0.2555071161166606,0.2255396143579831,0.2100073525809249,0.2329260352752835,0.2647468316262034,0.298695398930638,0.3359699283374644,0.3462557015581162,0.3632093463760935,0.4015020212054667,0.4454829648540719,0.4862706719710603,0.5259011334214974,0.5486595460565011,0.5572513282794067,0.5631490481332009,0.594525305320821,0.6327157292435748,0.6701232282709211,0.7004210531880524,0.7132074008847391,0.7136585989423205,0.7123173076962259,0.7014570635670938,0.686631434479847,0.6828253431679336,0.6805888914506764,0.6863930628850607,0.6823414272391319,0.6916311071431049,0.7025654045145799,0.7116024806632468,0.7086551967216042,0.7024686779552152,0.7023599165692889,0.7023599165692915,0.7022560601818089,0.6961915428561443,0.6850156426545959,0.6631695925393368,0.6496676587510091,0.6618588524352373,0.687784929959024,0.7120075630328959,0.7241879045427708,0.7402419038080841,0.738291898709349,0.7279335595273324,0.6909577053260088,0.6494935342100268,0.607060628163921,0.5639755973338496,0.5208757694717077,0.4704354783192221,0.4220276270893266,0.3796830965151643,0.3295182432144345,0.2787857063425929,0.2302987592061551,0.1880045079287247,0.1378702128103879,0.0886098975015876,0.0469832925694109,0.010193923226353,0.0117717483601429,0.0561365959749404,0.1068503541541967,0.1575876447982416,0.2083029789071606,0.2551667426981361,0.2986905105043078,0.3492372360956162,0.399974526739661,0.4507118173837061,0.501449108027751,0.5521336231141294,0.5980488635746077,0.642483845496834,0.6930986993251251,0.74383598996917,0.7945731214246923,0.8446220115591219,0.8867654249463568,0.9354894518827176,0.9855558919935046,1.0,0.960492666926549,0.915995903104082,0.8743518661500222,0.8319942040012633,0.7888895348296447,0.7482788855769045,0.7126188428307918,0.6820460238669812,0.6564993921267976,0.6358921801348527,0.6228241417862121,0.604585508593324,0.5808444127072294,0.5551127379069896,0.5266371994763122,0.4956392646323049,0.4646964571868028,0.4294416853577143,0.3913950799793371,0.3533693647001392,0.3177267571041875,0.280771989374933,0.2471412456287969,0.2197508227649511,0.2061529962902371,0.2200807393504722,0.2562573149485916,0.2994398798920374,0.3436658122901801,0.3867025587328798,0.4253540390699002,0.4634772379082204,0.5040307714235135,0.5446949782403945,0.5830325572507726,0.6175894282223309,0.6471749951844912,0.6725365618800538,0.6896722304441132,0.6910525697574672,0.6881279273839984,0.6782176454404825,0.6691898530668845,0.6665866749982627,0.6586113220429868,0.666830709945375,0.6785243601669046,0.6902731186680913,0.691068290055209,0.6935464452101645,0.7018607175758338,0.7023748199369355,0.7058557346502186,0.7144072937138557,0.7235039792311742,0.7249513947366071,0.7212160961930185,0.7022701417600625,0.6821573145037603,0.6699543029759667,0.6823501096268203,0.71115597047648,0.7305474826533143,0.7433195945206925,0.7554607578903549,0.7586411473580497,0.7435232231773752,0.7019851622996951,0.6590657152178199,0.6169235327277947,0.5735020998111244,0.5271127276352121,0.4767124395466626,0.4336583025836504,0.386223932473057,0.3355005023842341,0.2850428920008427,0.2419196801632732,0.1945737872820694,0.1438551924179671,0.0952496696453693,0.0531691606634381,0.0108471255948212,0.0,0.0295309312036218,0.0782722361482193,0.1290063665233756,0.1795091202572827,0.2230218820761003,0.2699418087945457,0.3206559675669866,0.3713932582110315,0.4221305488550761,0.4728666624879467,0.5225251070426415,0.5643813137333684,0.6137810290581951,0.6645174307964961,0.7152547214405396,0.7659909564324292,0.8156927755617032,0.8575754557213564,0.906905540886195,0.9572684184805672,0.98039304889978,0.940335178088684,0.8978439329359653,0.8523301807251729,0.8085876431144459,0.7666441055936568,0.7240688109992766,0.6880975404991609,0.6539802797254561,0.628410593541818,0.6192120396784873,0.601744525460139,0.5790468806059066,0.5573042923850648,0.5324792117346984,0.5024044835191592,0.4676422478111881,0.4334723894210228,0.4009628542149741,0.3647487036653587,0.3239451989520907,0.2845282117337524,0.2502328344733542,0.2133339404626204,0.1830265782733171,0.1575756096936467,0.1403205705344063,0.1591571933684947,0.1964637794133377,0.2344780770854864,0.2733244881099752,0.3185406948470437,0.3592232476855077,0.3996912592616386,0.4401169256080379,0.4797697511927239,0.5189803858648643,0.554880810430179,0.5935202949116856,0.6284413930523849,0.6531978439933082,0.6485033193135212,0.6446032717061358,0.6356756969413495,0.6294918851534999,0.619567687876861,0.6139574259027618,0.6252965230359075,0.6464821373015286,0.6689054173340725,0.6909601818481437,0.7077862957202692,0.7315025565636604,0.761303224486074,0.781464314149845,0.7945545624204273,0.8149131908305414,0.8227897044309005,0.8151759406746542,0.8014886011065783,0.8046546792369376,0.8239629938422306,0.8220267691254488,0.8120622062987577,0.8043437068395818,No
14,0.4049851609142973,0.3878735582054873,0.3599473375112234,0.329642980741573,0.2977737456899059,0.2643467252203153,0.2308199612900914,0.1966392845587319,0.1615203930240958,0.1256609219098308,0.0907103867152809,0.0560342231503485,0.0236819309930629,0.006401131214213,0.0321841823503625,0.0635846726603563,0.0952379029466045,0.1281886501655953,0.1606045329774181,0.1940864590974145,0.2259861184149501,0.2559223970685669,0.2894481991697724,0.3195358295389028,0.3443583054611854,0.3659509175177233,0.3868199259639318,0.4054167749352484,0.4246203932498085,0.4456527845049201,0.4718332719880547,0.5019274582307096,0.5344965880693673,0.5700348157537369,0.6098698209432882,0.6462104502285928,0.6876396336230497,0.7295162222344085,0.7713806948796633,0.8109329016164919,0.847812609927068,0.8893604799633701,0.9269697398457756,0.9656626814981996,1.0,0.9945258062025006,0.957641885924178,0.9169221733122546,0.8807950894243624,0.8395978283014383,0.7977214927358462,0.7558447005130775,0.7139717294144536,0.6734370873472868,0.637221692684492,0.5958892585326148,0.5540128607340904,0.5124809386662954,0.4759538427519152,0.4359392711999401,0.396187298478865,0.3594851322723478,0.3239602723870378,0.3387888254996045,0.3789587972152628,0.4141424400046867,0.4366151700771183,0.4334386381952237,0.4243659391170995,0.4015826538803051,0.3847498923928996,0.3849622187946599,0.4013934559092917,0.4170463578375933,0.4230996965323057,0.4185959787329465,0.4125828388036978,0.4105193024320288,0.4106377532778515,0.4156609504879041,0.4242792002826654,0.4254666077705769,0.4206694501128842,0.4083542745564334,0.3942165287903552,0.3746678162466652,0.3483089343176069,0.3188252995944687,0.2848419175892931,0.2476461109383438,0.2138483593079851,0.1777953078571716,0.1428076466462722,0.1088731721327413,0.0734613097977633,0.0389216606396701,0.0089493540281461,0.0111385872295526,0.0404255809567908,0.072916324892431,0.1100838792891334,0.1425225111462755,0.1754139302363608,0.2068942874498929,0.2377985805260383,0.2676747876534289,0.2962106650468254,0.3220972273538016,0.3476061725867423,0.3679607516625571,0.3849522093098676,0.40181990323221,0.4230828337211021,0.4471635884008398,0.4770342795352325,0.510378948539219,0.5474744412707762,0.5836121050760901,0.6235508239444234,0.6597864816645134,0.7011252834313033,0.7392929088129856,0.7655812578154597,0.8041366079719992,0.8458594954494727,0.8831951416082244,0.9220621311898942,0.953989909103092,0.9438948896544096,0.9092874901514648,0.8686490450024107,0.8267746279341885,0.7849072793284613,0.7449510072907954,0.7083762991385267,0.6668194392349593,0.6249427050217637,0.5831421212247889,0.5452129589377708,0.5068247817498821,0.4667404565306869,0.4303956971584948,0.3930455822356733,0.3563792378296457,0.3537667285276999,0.38746562911477,0.4127504261593442,0.4175880093358148,0.4075849729101142,0.3872950577316432,0.3739601045502185,0.3801430427874821,0.3929569031648439,0.4021458318956974,0.4029470453906179,0.4010347772394045,0.3957271099402424,0.3954055841412216,0.3960908100337097,0.4059565609586508,0.4152275263453724,0.417792089970644,0.4109193439261647,0.3990488860013639,0.3825085339564578,0.361230361746079,0.3341209190348335,0.3028791268555666,0.2737941781391177,0.2487985445062279,0.2150307113623999,0.1785160515591175,0.1390958713528496,0.1040652521014222,0.0685330907907243,0.0346408549015989,0.004336950609374,0.0,0.0287559173077691,0.0601624656523102,0.0917309921982517,0.1250836892573856,0.1628153569045445,0.197099301480923,0.2285276212079747,0.2598889498690488,0.2894745841916954,0.3185190813723202,0.3427269174542566,0.3654549613679798,0.3844217525775699,0.400359666597774,0.4161683983084048,0.4401113603082851,0.4708698812733896,0.5044612655215155,0.540212778192527,0.5763885905389139,0.6144772324891083,0.6537224899484408,0.6908161942879363,0.7324965752927752,0.7722176044029112,0.8089629304236086,0.8505569124939076,0.8895671482088767,0.926817064179128,0.9605048576335802,0.957342673343963,0.922378778455518,0.8861900610319142,0.8448399913612132,0.8029634957225993,0.7610867034998312,0.7192099112770627,0.677333119054293,0.6354563268315245,0.5935795346087565,0.5517027532117182,0.5100026556150075,0.4728505887221679,0.4336672073781624,0.3954982093008088,0.3584804349678601,0.3322109882770767,0.3555872537843687,0.3925575997901562,0.4252079670156989,0.440907663293691,0.4422128760948645,0.4281593618709285,0.4098213410939009,0.3990862306275748,0.4110533662322615,0.4274459050379839,0.4406532581160514,0.4434571625531385,0.4462073084631492,0.4418660785068753,0.433534067205775,0.4258564208492008,0.421756778220399,0.4290392835838559,0.4412499616792793,0.4437698748278949,0.4444595545952807,0.4379748581280716,0.4259794079003085,0.4060259968053901,0.3811760821311107,0.3488632458958811,0.3172665496559002,0.2845732264075469,0.2500432688857599,0.217201199218499,No
15,0.6770737606646665,0.6417468065349753,0.6009629874214909,0.5584036525501149,0.5173080605196875,0.4704754169281021,0.4213137471900458,0.3775060163380653,0.332937284089298,0.2872578181208912,0.2465926246678181,0.2130275015076944,0.1703587074899196,0.1264962823186993,0.0824121131967104,0.0414786483033388,0.0034594106584963,0.0057904524106929,0.0442519508699911,0.0839403807489548,0.1309003472691211,0.1728075410175792,0.2136701890096429,0.2545188872923817,0.2953997691764468,0.3377445795747452,0.3770346546905602,0.4152928927887646,0.4518851824540372,0.4886046345807214,0.5269859824703934,0.5616487341138588,0.5916549566778634,0.617716367042919,0.6431657214471781,0.6656383471443356,0.6863243630299617,0.7132537318213602,0.7475314278795827,0.7895571964652847,0.8347215219604086,0.8800374352069152,0.9209220760245774,0.9297601213638584,0.8872728844390317,0.8413905788468184,0.7945454846008767,0.7435300289546026,0.6924656982665754,0.6414013675785478,0.5903370368905204,0.5392733263910524,0.4889596977917504,0.4451060084995225,0.3957408566668362,0.36386924056227,0.4002453655956027,0.447721580344847,0.4929874281930483,0.5438297897244958,0.5912420669793393,0.636645214536479,0.686619252167049,0.7301679821809907,0.7719979800749416,0.794169103839156,0.7952679725537589,0.786735851780563,0.7699572497446424,0.7460619549291726,0.7478088512756177,0.7561235880222664,0.7668833803352472,0.7619386189250789,0.7580702852321767,0.7575771997231745,0.7506828656238517,0.7429892593946473,0.7298567021985479,0.7183810708571884,0.710798575975686,0.7131994543821171,0.7178153356168978,0.7274386493518065,0.7381675905071049,0.7357182000440637,0.7179194505511585,0.6888193211969805,0.6551028726354952,0.6146135101457914,0.5737636524223527,0.5321002878409745,0.4880996403227579,0.442553315099974,0.3991821299446755,0.3556924318624906,0.3114672072215249,0.2657333786804284,0.2216088060930571,0.172745483633777,0.1228287094813808,0.079760170747467,0.0373104606759023,0.0,0.007645261999029,0.0449984206447774,0.0852442384147037,0.1261268692086209,0.1685873023809257,0.2097425459679905,0.2544543919448693,0.2988754526369012,0.3397528475471975,0.3798212537055655,0.4181675512206985,0.4557406893466914,0.4901676999824828,0.5241806974234166,0.5563538928084543,0.5885519240479676,0.6157076121866857,0.6373343365484653,0.6573031610003851,0.6818027876073515,0.7123113436836949,0.7510491767262805,0.7945251550234317,0.8380315574841134,0.8847164986575792,0.9265194338072844,0.9432916916769606,0.9088242300423448,0.864174976312947,0.8161859954037493,0.7651427829518921,0.7140784522638647,0.6630141215758382,0.6119511097745204,0.561917537886467,0.5181660275983252,0.4682740827119361,0.4184202772873081,0.4078854204052523,0.4547308630907486,0.5057882264463821,0.5557421569600881,0.5994761522703907,0.6485464931916834,0.6922339017232159,0.7374988249054518,0.7750730463010612,0.7863305156113453,0.7829476209237615,0.7739008364013319,0.7534372729696267,0.7398097320230478,0.744883014048498,0.7557345741108955,0.752412015267892,0.7477822792892806,0.7400715135717054,0.7311225413100627,0.7216602017673989,0.7141457141893174,0.70036217621415,0.6868968673817007,0.6828426880050483,0.6928320140835044,0.7125277229891683,0.726432724141728,0.7291107951467172,0.7179671983428385,0.69228302560691,0.6594905970965047,0.6201677792485122,0.5757101628274751,0.532892436798556,0.4913351971137113,0.4486853529826869,0.4045433522849618,0.3591856419916072,0.3158198017834813,0.2721450965766033,0.2266174196280476,0.1924770571692015,0.1554941854159074,0.1129425010774548,0.0705144554593392,0.0451764237111288,0.0732844170762753,0.1115583792396787,0.1501074275188024,0.1908802270990673,0.2332181384631174,0.2724731990573209,0.3132698211380323,0.353210717895572,0.3908732842306405,0.4199105118157401,0.4541351533330574,0.4936620215865607,0.5282409457665788,0.5615890942464169,0.5891472224229845,0.6146932166186628,0.6399156928024307,0.6613499217442601,0.6826505817908041,0.7127134926884667,0.751354581259203,0.7950220516852414,0.8419154302014263,0.885624374275004,0.932318769824456,0.9765462203707396,1.0,0.9663209164696148,0.922628616499419,0.8733138393956775,0.8222542054318701,0.7711898747438412,0.7201255440558129,0.669062532254498,0.6190289603664435,0.5752774500783012,0.5253851801266153,0.4743224610290163,0.423265583056419,0.3778648452990333,0.3920944455865681,0.435669207455878,0.4841905121762834,0.5348619802250897,0.5792279844031455,0.6278352628114391,0.675424623754357,0.7133001403530969,0.7463365496409838,0.7819771779732761,0.7946381780140842,0.7877218656110953,0.7770475059585632,0.7550165986294827,0.7496051369193001,0.755154865407239,0.7594260307709303,0.767203315052979,0.7612154944150723,0.7580518494601592,0.7566239889336513,0.7474891199482091,0.7384024193419262,0.7289495104120226,0.7197414942665042,0.7116840536786625,No
16,0.515927195002819,0.5109267154618669,0.5010486423310907,0.4887463817973903,0.4702004414860068,0.45333515319168,0.4551332992559567,0.4459106077296699,0.4115785836512031,0.3718511258995092,0.3492684445674638,0.33063787694968,0.2996278580316993,0.2575796331235263,0.2451818715502625,0.24327071929671,0.2233594273796035,0.2175833776657019,0.2415721658586327,0.276915591237391,0.3161317139294657,0.3479467131098246,0.337117176772983,0.306761632949222,0.2793475018571172,0.2486130012472895,0.2278475870662915,0.2104613411577824,0.2102761329324749,0.2283423671735456,0.2596153957410909,0.2935446929774963,0.3274752095984081,0.3579189119092227,0.3910455578199363,0.4218046656672525,0.4530182023423863,0.4822818793686492,0.504082961220407,0.5229557199398094,0.5402668026270605,0.5668876129510447,0.5956104376291498,0.6086193256489103,0.6094214417097106,0.6094290540875054,0.6122052989132423,0.6223036465927823,0.6233706320862751,0.6334255282427008,0.6361230526240431,0.6372251037869356,0.6479399808448052,0.6480297912946489,0.6293566375907262,0.6017953630143491,0.5959234551694494,0.5878638779838201,0.582745116633961,0.5827185817184162,0.5844496826759602,0.5923383492043317,0.5833276186024758,0.5827199372626624,0.5849431067948252,0.6005391502539943,0.6286327766493434,0.648240879836709,0.649478058002307,0.6496269734340736,0.6584111970921327,0.6660635598343767,0.6527527006397607,0.661544801749119,0.662748195288654,0.6539665485387129,0.6294900161110266,0.6080918531177322,0.5911909214854842,0.583909602786618,0.6030692709867627,0.6409189900798362,0.679252116304575,0.7172424543973392,0.7490209765160778,0.7707828395035212,0.7821269207794816,0.7679787417831394,0.7311632799140912,0.6873627096954305,0.6384974955421356,0.5980645497218056,0.5478176427931387,0.4968216996319115,0.4485798003635641,0.4075863760085989,0.3571689362444392,0.3061686958685263,0.2552149419910621,0.2103565907043625,0.1664157393759138,0.1161504985038319,0.0801810715812214,0.0687315807606783,0.0929679256799946,0.1372741858737838,0.1787589708997028,0.226322502072354,0.2773173852534802,0.3283177056510546,0.3793180260486284,0.4303183464462023,0.4813182173015324,0.5315319694531431,0.5719283105182684,0.6152926893654367,0.6471103777115681,0.6962648590245208,0.7472638694097722,0.7982641898073461,0.8492645102049206,0.9002648306024945,0.9512641801160082,0.9999999999999998,0.9974350562422256,0.9515901728476855,0.9097708925593408,0.8619976637879281,0.823319591761541,0.7851027416867293,0.7498231148157244,0.7224467178281537,0.7032504890720361,0.6855294203734676,0.6711112226219444,0.6549810713336146,0.6455859147227898,0.6285293727038608,0.6079126751000501,0.5869772831855868,0.5694655153894714,0.548697775173405,0.5284478409859343,0.5031432888795055,0.4736972348403168,0.4367968021518356,0.4013336552592539,0.368492781536087,0.3379898139404556,0.3079782771868644,0.2780417768333689,0.2539770069368954,0.2323136125540015,0.2103212654732122,0.2185849809841487,0.243230112991686,0.268992456307308,0.3004674380505161,0.3343971042723852,0.3684457637011988,0.4049254500671175,0.4373024884629861,0.4684049182617886,0.4994063668221569,0.5261376274756995,0.5496982881098591,0.5575072302844852,0.5681287584380577,0.5693645552795406,0.5690008849006893,0.5592470256550361,0.5561183979133946,0.5629083175180665,0.5637580862621785,0.545379530438318,0.5535465165697164,0.5783400875936129,0.59480836555227,0.5849670483922511,0.5702809251526813,0.5782985677593067,0.5827140799589696,0.5870479339645496,0.6027903694209853,0.6093722370788048,0.6094475176821328,0.6144661168986627,0.6159648281285481,0.6095093629259389,0.6094843056408255,0.614902352954932,0.6104027235549798,0.5972010877823626,0.5960312251230582,0.5903763851171211,0.5828397034777135,0.5827171477987039,0.5827171477987083,0.5827171477987128,0.5827171929081201,0.583066266309481,0.5922654253321753,0.5945179759535268,0.579842709389746,0.5566101440512699,0.5340302374064974,0.5328415666370272,0.5544740606657601,0.5806446497563329,0.6149952794190978,0.6353781369676781,0.6575769399439599,0.6510243783051084,0.6324360936039553,0.5879373223795679,0.5401947928308559,0.4988500115016439,0.4483325763294028,0.3991245812522705,0.3587758801852641,0.3086814852310595,0.2577178774335313,0.2121903653893881,0.1689040255459732,0.1180333807847853,0.0683944560253499,0.0292271460667634,0.0,0.0067000130993213,0.052639021425924,0.1036335425856234,0.154633862983198,0.2055391722221031,0.2497256450173057,0.2943330610199657,0.3452829046336794,0.3962832250312533,0.4472835454288268,0.4982838658264013,0.5492835783552377,0.5992454690209204,0.6320991774647362,0.6756195823861171,0.7223599921833006,0.7644889859839956,0.8147609256019959,0.8377020458476265,0.8007937440091435,0.756657394523766,0.7182599966461283,0.6806847568390848,0.6533816095341274,0.6369218439156279,0.6291452099565242,0.6228491818982491,No
17,0.7678384700404188,0.7613760111353036,0.7575746544650044,0.7660777581351608,0.7762197590866209,0.768879105589187,0.7679920259989128,0.7679912939885147,0.7678457198409268,0.7614755592788207,0.7558530177256824,0.7474628202283746,0.748414527088016,0.7498734227916959,0.734009162949949,0.7316378776867203,0.7274771280239751,0.7391660005583627,0.7484677916100428,0.7615963059499598,0.7648947874179117,0.7603154400104897,0.7676151126932735,0.767121952557819,0.7488738151259473,0.7110219428476565,0.6672142263924916,0.6198408278628462,0.5799587982652594,0.533405691880428,0.4852168062625943,0.4372480103020137,0.3961341582940392,0.351352309318,0.303176393240725,0.2549855146722191,0.2067946361037129,0.1586037575352075,0.1104128789667016,0.0622287911449277,0.0174087667726594,0.0,0.0262634031001396,0.0730697949872416,0.1195212150659541,0.1594246765773013,0.2069211251213654,0.2551116688045949,0.3033025473731008,0.3514934259416067,0.3996843045101126,0.4478602205873876,0.4926420695634277,0.5337559215714012,0.5817247175319815,0.6299155961004874,0.6781064746689935,0.7262973532374992,0.7744882318060051,0.8226791103745112,0.8708261614370489,0.912472666117886,0.9049380025257732,0.8669218046756377,0.8270429030340467,0.7919299795556056,0.7604400765329151,0.7333376239548215,0.7250777911819717,0.7193451455894648,0.7095658417874249,0.6952718263949564,0.6796473859341912,0.6641884593353853,0.6416630830993579,0.6212556583207853,0.5921942082269693,0.5637281381819343,0.5357224433352101,0.509080698341186,0.4802077676969374,0.4501026338451643,0.4391150224695925,0.4548379948986605,0.47833665561214,0.5067534037053036,0.5401956824997436,0.5806915459388238,0.6146822498851101,0.6492192415827165,0.6783169053839575,0.7032061081416854,0.7211919197745214,0.7250823289283805,0.7250971738032335,0.7236463225746339,0.714408642115943,0.705972281667365,0.7128933621197009,0.720639727541001,0.7300947626042866,0.7396094266811755,0.7463769331315948,0.7473341877298467,0.7556167609806173,0.7572654998249957,0.757268113718514,0.7567743838363112,0.746840721490788,0.7366934389512116,0.7457053861532967,0.7576733273020759,0.7715236961791427,0.7867265286342173,0.7894317400127129,0.7894371315055317,0.7884091957322943,0.7645497927583242,0.7256716342327987,0.6789394553625785,0.6386018794583161,0.5928178469905516,0.5446354026127904,0.4965635181843779,0.454387782927123,0.4107368761732204,0.362594989590921,0.3144041110224151,0.2662132324539092,0.2181360320239977,0.1758857187455147,0.1323122978475308,0.0841734402867662,0.0373183771815193,0.011136071281441,0.0357071174333882,0.0808913531038657,0.1212187900294816,0.1689484377805659,0.2171392749587566,0.2653301535272625,0.3135209653068511,0.3613958825241976,0.4021229949526166,0.4473801427095818,0.4955614451176369,0.5437523236861428,0.5919432022546487,0.6401340808231544,0.6883249593916603,0.7365158379601666,0.7847066591466447,0.832596542294852,0.8734214590153868,0.9185676902682358,0.9654936246201256,0.9725852334495836,0.929935671574329,0.8897420663266977,0.8487111678204706,0.8116120824806656,0.7822976332716183,0.7591267980180336,0.7450386501367001,0.7357445539521419,0.726850340583763,0.7157991264177943,0.7018872782358072,0.6840217984986887,0.6647413022007334,0.6465619822308539,0.6204734577066919,0.5924736181601586,0.5620698993083919,0.5352012511832627,0.5079941446533496,0.4908202505097572,0.4926233891548739,0.513008458210148,0.542425471331847,0.5774924995444455,0.609879328023893,0.6420136220571604,0.6757896128817742,0.7091979391153673,0.7330401710271581,0.7474370468361811,0.7566625457198395,0.7558689852035667,0.7472350268649695,0.7390949249487466,0.7358359973622819,0.7358798121632708,0.7407376506068726,0.7502241380429111,0.7570924945803257,0.7572681927364104,0.7572685277841309,0.7580155765518592,0.7655154066327807,0.7607807305343166,0.7671276743889135,0.7602302729438672,0.7482238492135171,0.7375748587301811,0.7416490683921697,0.7561879617172815,0.7669545751643314,0.7841500150483791,0.7918674326373945,0.7947967404397995,0.7893267218586957,0.7805657940065986,0.7544045394849315,0.711257092826509,0.6667817854451303,0.6254091646887541,0.5774354723277229,0.5292478128325646,0.4828271830134405,0.4474986931280011,0.4155095181983004,0.3707269243552267,0.338544221836933,0.2937076199157213,0.2472418216973051,0.2073084210992579,0.1598649638113158,0.1116773087488642,0.0651810364135501,0.0296702621526427,0.0322392407258309,0.0717038876561533,0.1147608655907164,0.1628929980361184,0.2110838766046243,0.2592747551731302,0.3074656337416364,0.3556556635460146,0.4029177389141067,0.4427407202787845,0.4895076315755622,0.5376969253320114,0.5858878039005173,0.6340786824690234,0.6822695610375293,0.7304604396060352,0.7786513181745411,0.8266849071831313,0.8685482988570468,0.9125316038176692,0.960671942455477,0.9999999999999998,0.9761899514374044,0.9326319887053394,No
18,0.5007482250249469,0.4863380314563565,0.4734356679626055,0.4725569147367197,0.4783234704988794,0.497286749278119,0.5030428300113869,0.5022676898702105,0.4844320672707081,0.4510808083966555,0.4131150094694673,0.3725170895301448,0.3278866937383395,0.2831020370410959,0.2409375874082422,0.1987729864401908,0.1576055784269829,0.1309412817216344,0.1277689411892231,0.1560430844080773,0.1875974836281182,0.2148924311582765,0.2480329039218487,0.2825137074457791,0.3141494083024092,0.3433023546780087,0.3630635329453131,0.39170855404529,0.4213063597617021,0.4418195624656529,0.457630661392884,0.4770024039761829,0.5153416057041089,0.5655739798371227,0.6278546484349392,0.6874521246968626,0.7396798398287854,0.8017584604154671,0.8536551808709065,0.9047051632828896,0.905888348499297,0.8607227082543067,0.806177277007277,0.7497957600738245,0.686617576317829,0.6233719851323434,0.5604848076973354,0.5076829560863585,0.4488923745335311,0.385661993261897,0.3224164020764113,0.2591708108909261,0.1959321184634133,0.1360172343467076,0.0841326478623001,0.0256235437197074,0.0353572847665293,0.0970041516697866,0.152450855344894,0.208404782574421,0.2715410169665149,0.3290695580399543,0.3829482344252981,0.4392331992079525,0.494061896844673,0.5487169051424488,0.5776545084596765,0.5794409435339647,0.5794397356908032,0.577641497885145,0.5608407102599005,0.5397251797510956,0.5147820713088893,0.4817225418919455,0.4693556240187013,0.5026853962484208,0.5372849206121706,0.5589575585210462,0.5641407499481574,0.5641690808834188,0.5641690808834179,0.5641102765405703,0.5571522049052873,0.5520005087713842,0.5587991731929991,0.5492724305220054,0.5479907684748793,0.5352062813439851,0.5194107523479734,0.5046436807015109,0.4920757340706747,0.4878218876453006,0.4893273239848121,0.5013425251156107,0.5076832131801541,0.5168989671276942,0.504655841127073,0.4879461441237351,0.4628717442614478,0.4289772213672798,0.3869330474581072,0.340309170667235,0.2896562871732335,0.2450442084010808,0.1996946597874802,0.1614555587923756,0.1273136416241356,0.1073521405621571,0.1206913130425983,0.1610899919040194,0.1937097392609983,0.2315683858516428,0.2639318547797158,0.2954783391936222,0.322458303759078,0.3511631748737907,0.3794502037115519,0.4049956501367728,0.4250019920693288,0.4428893723867313,0.4650657889805729,0.4979976699406978,0.5424053990299655,0.5919497052900784,0.6515131012553415,0.7028547461796828,0.7639167148390831,0.8152635410516527,0.8745940370199179,0.910628643783681,0.8948404653032238,0.835027138963861,0.7717835144482437,0.7085381057054043,0.6460088814365323,0.5940682345441357,0.5340668146218244,0.4708279313923134,0.4075823402068281,0.3443367490213433,0.2810911578358563,0.2178768293360584,0.1598067538290175,0.1063504624100737,0.0434628887380661,0.0,0.035308667665951,0.0905327300525047,0.1317318474293132,0.1885852586834402,0.2500007872298653,0.3011516424472109,0.3628596095300822,0.4168983556682004,0.4711936853933922,0.5190924015882827,0.5540391246643828,0.5683450078853531,0.5789821003590512,0.5729024927657971,0.5627301538104659,0.541148667104983,0.5096377351141612,0.4780195138349614,0.4493539910187487,0.4524373903410956,0.4823767485967285,0.5076166151827071,0.5175714645929324,0.5069060424814604,0.5023041253280729,0.4908206276304749,0.4867873274121383,0.4747352127794904,0.4711150082254662,0.4589049532439762,0.4492020110683619,0.4362792808595754,0.4139049210304342,0.3988384678771859,0.4011801926974665,0.4078149154148311,0.4074659334909207,0.4256252724530385,0.4397331858796085,0.4327157970769169,0.4161351473301429,0.3909602389963091,0.3627753929278468,0.3253764272385613,0.2832091479573231,0.2410527274682619,0.1965696171000006,0.1489043158723202,0.1238909362350226,0.1339062689880203,0.1743440117430346,0.2098818670892361,0.2532921666145915,0.307441075957942,0.3469204455025103,0.3785462486570714,0.4143632016256746,0.4450078268973287,0.4638475565156725,0.4865095635293843,0.5042238160321619,0.5248367602634909,0.5385668014084759,0.5584947266556601,0.5856779317784246,0.6300966182025194,0.6840023146299634,0.739033769327679,0.7977122362343807,0.8504882235601814,0.9109970141185184,0.9612718820371372,1.0,0.9876106065477908,0.938487366747168,0.8850680509720417,0.822092507436663,0.7588469162511764,0.6956032075962799,0.6341800024207349,0.5829155160252428,0.5211361203961933,0.4578913331952456,0.3946457420097609,0.3314001508242743,0.2681545596387891,0.2049089684533038,0.1416633772678186,0.0784761170724968,0.0315062161902055,0.0708319477343617,0.1339114691196172,0.1914824925686131,0.24538306027828,0.3084017540295538,0.3711836377527238,0.4236575629331867,0.4808817481776124,0.53126792410671,0.5806899752643524,0.6197416716682853,0.6382210344755492,0.6403266862552757,0.6313491294289002,0.6223571773164389,0.603800481305822,0.5767443378743193,0.5472837974721925,0.5126653171943785,No
19,0.5938905229181535,0.5939173394685744,0.5970690682631379,0.6017712706841427,0.5923679665205428,0.5813499938614219,0.5832225300971416,0.6003335752383221,0.6178474397292992,0.6269893908579103,0.6098206866679254,0.5718957597804954,0.5311224024470163,0.4807553380633302,0.4245895359864551,0.3685068620112881,0.3182127753616766,0.265175609201524,0.208890608083534,0.1525917003486434,0.0989445799966324,0.0495292402794922,0.0108233206633916,0.0328516753453436,0.0862600360870051,0.1290443835856627,0.1741479271794019,0.2275443695677044,0.2838393949361215,0.3396440244533025,0.3890940665848208,0.4432315103116702,0.4995386423434604,0.5558529687642044,0.6114439605510622,0.6606388602655222,0.715242549818419,0.7715525082562291,0.8278674395589141,0.8841823708615986,0.940407637563334,0.9822034593272282,0.9508035974434816,0.8948545673340249,0.8416993565138773,0.7914934523971493,0.7356101662729411,0.6847956855007626,0.6330827647417452,0.5846885686895336,0.539701341266529,0.5004077628661117,0.4626468492100706,0.434305641157992,0.4063365981113287,0.3755391231917329,0.3400832568805119,0.2997286366193288,0.2614279442105272,0.2227257091194854,0.1893058516745536,0.151304081136901,0.1100891351638582,0.0698478088167875,0.0312445259841838,0.0,0.0039898150867365,0.0374565376903159,0.0790836233890424,0.1259913758583342,0.1736289010579745,0.2212469621646913,0.2752530745823121,0.3242884002777548,0.3721405268849838,0.4172658379280369,0.4622980548688027,0.5050938617277498,0.542174581027949,0.5688492312698366,0.58863830592863,0.5936379074687794,0.5870701628469854,0.5761591066707783,0.570724458986893,0.5671571741955854,0.5761998322457584,0.5906952018954443,0.5939199670783881,0.5977249044174513,0.6032802509408763,0.6034513135188488,0.60329540756826,0.5970596968402193,0.5827225402311325,0.5681451176069692,0.5769771948109443,0.5976798227367843,0.6187928848277231,0.630410375511314,0.611095495993389,0.5634209117699736,0.5074121796612179,0.4510973033001775,0.3947823719974916,0.3384749696138216,0.2843435692208276,0.2408082218146376,0.2031162160062423,0.1655362415895032,0.1229302673331613,0.0690901370774541,0.0254622694197717,0.0271597815108417,0.0731027216637139,0.1256229149132295,0.1818949033970944,0.2375397690463814,0.2867990090225354,0.3412851235410379,0.3975928687300307,0.4529191899775417,0.5019328173008211,0.5569805435766784,0.613293303843065,0.6696082351457504,0.7258113658084571,0.7771582256538687,0.8290631383791871,0.8853045672571707,0.938735290054757,0.9423327080836994,0.8925990741383543,0.8369152521980645,0.7875973066369004,0.7332640308672593,0.6769579794920306,0.6215479644978175,0.5742195433715822,0.5348414170065099,0.5018484206930081,0.4729365109997265,0.4413071648282698,0.4090529722628071,0.3742656573157961,0.3378621313943717,0.3024420845204678,0.2648727989083761,0.2246113498669026,0.1812861215259873,0.1356051131659692,0.0957313352137554,0.0598043932160961,0.0364244816365788,0.042473187531332,0.0816535700269118,0.119262087442274,0.1582666917922255,0.2055358655515817,0.2536965557829984,0.3020125217283231,0.3490663023344056,0.3974312954190224,0.4427996780302015,0.4871885546448729,0.5292319347262431,0.568348855222303,0.5962086567517859,0.6102955821699723,0.60620895526068,0.5970825902082817,0.5919583864869369,0.5885947143952703,0.594300378745267,0.6010711761578964,0.5965394967190847,0.5984189408553273,0.6062219434906997,0.6127087449077098,0.6124548958699667,0.6043896428097684,0.592092167309767,0.5902666569679469,0.6048606965031418,0.6204764814135417,0.6393598562588343,0.6249180160378669,0.5775988612165721,0.5276288692063709,0.4744298011543846,0.4181406957003055,0.3618875166937885,0.309781074753688,0.2586311629854274,0.2024418027602472,0.1464055306039016,0.096418074344627,0.047684196086069,0.0459812910319576,0.0948212581744241,0.1498217978283633,0.1988814617181997,0.2541464102273689,0.3104599482293988,0.3667707550179786,0.4214698299871109,0.47059327948121,0.5261596001356104,0.5824738141421675,0.6387887093403422,0.6948616563551508,0.7451921935234735,0.7981993069023705,0.8544876800549341,0.9108026113576198,0.9668264347083182,1.0000000000000002,0.9624669587047784,0.9064726850966516,0.8530265447615957,0.8030655394785231,0.7474011247030956,0.6975532433484959,0.6462853358682845,0.5980158861121796,0.5533182921951343,0.5131372370535578,0.477351862475708,0.4516561727935744,0.4226597322162573,0.3901563276511022,0.350670263744945,0.3139107546357733,0.2751339568633109,0.234859905566459,0.192775802346097,0.1521393994336481,0.1128800861225325,0.0714563878078327,0.0391974354122266,0.037369276238014,0.0692575101057173,0.1094680882977274,0.156088097031471,0.2033255628002772,0.2561806878611632,0.3053586391514375,0.354989950907677,0.4018709578488451,0.4470473196218016,0.4920849340850017,0.5351952607734818,0.5712850831724472,0.5986103121641335,0.6111655554829338,No
20,0.2232128111640097,0.2318188358863691,0.2658601702379597,0.2992371270464924,0.33362441922885,0.369330908772044,0.3714989621071731,0.3367811571399419,0.3021408353538539,0.2642633954716988,0.2299107626714942,0.2230899500419956,0.2260447514400887,0.2116180987707692,0.1827396774398604,0.1641815247220712,0.1712958962595598,0.1973215870871427,0.2298238067438549,0.263092603445781,0.2991156876295229,0.3345032051628165,0.376432262794468,0.4130079742180961,0.4460484191340346,0.4787900206186435,0.5101081452056007,0.5325423399749358,0.5516165249974168,0.5566585380707867,0.5547961362773528,0.5453082794821837,0.5370396081741242,0.5328598615905558,0.5329803756279483,0.5398670486569634,0.5449112886079392,0.5526932240131812,0.5647132585840664,0.5685875276367951,0.5690025941813248,0.577447351658587,0.5805151620804132,0.5805239476845849,0.580511724520961,0.5764602615209844,0.5594521267116832,0.5577617566160322,0.5739760887082221,0.5861876408589444,0.5843888543811366,0.5994633881621936,0.6179572658316044,0.6216386159920817,0.6038137200224254,0.5588294223357257,0.516878579924003,0.4724581871943403,0.4284190317627345,0.3860510800873142,0.3371043905126025,0.291343001021479,0.2505062722992381,0.2017380645799456,0.1532644824983733,0.1133497965826542,0.0673256874204286,0.0369051548999148,0.0451959729886564,0.0860284761690304,0.1275915046502718,0.1764903594899725,0.2255353215632642,0.2691980223252623,0.311931593442057,0.36093895121918,0.4100317322877902,0.4591245133563997,0.5080378232576681,0.5497584003898022,0.5944991877499577,0.6435731050856068,0.6926658861542165,0.7417586672228267,0.7908488542786327,0.8381877589289228,0.8780081467200183,0.924694017958274,0.9275483036986016,0.8806396095261593,0.8358991814754178,0.7941839523879919,0.7478118567817482,0.7086413853012918,0.6706928358213498,0.6358861366870077,0.6043130818500235,0.5793237421070456,0.5610909587438813,0.5447641010716553,0.5310464362599967,0.5152300161332348,0.4954810113161771,0.4752491953984101,0.4495759637902607,0.4201894168044509,0.390940149335667,0.3583793315621035,0.3256718212530001,0.2929308062041551,0.2609980486123118,0.2313494896247734,0.2001137272474302,0.1811740057540576,0.1840053301408484,0.2040257335722775,0.2332003860328975,0.2648538703921548,0.3016251633015838,0.3400830355977897,0.38058838016924,0.4149716806544941,0.450244952586794,0.4829977558460043,0.5136643384865625,0.5384929554482967,0.5568459623684054,0.5671876186857445,0.5607499760169143,0.56494898143821,0.5541773683074449,0.543355427964445,0.5339425548057828,0.5412820981003763,0.5447623426815751,0.5483507467035709,0.5563896854085111,0.5573785313793005,0.570951398370767,0.5766354821653286,0.5697508024007152,0.5790118832980293,0.5805228588683593,0.5804718041725456,0.5748029288235412,0.56023413843312,0.5568776148040886,0.5663518662416922,0.5732059229381936,0.5749646933291084,0.5921149735480191,0.6030553085377708,0.600591984658541,0.5725023921453056,0.527215601664091,0.4843321189333232,0.4408312618071497,0.3917973143008491,0.3433923605698303,0.3035009579268788,0.2564379765487035,0.2073494194141443,0.1594932311716144,0.1197905336595537,0.0724482471559033,0.0324224322315966,0.0,0.0094167149701649,0.0503326579721463,0.0992199445723878,0.1417497398836316,0.1856541871423871,0.2347003713286501,0.2837931523972599,0.3328859334658691,0.381967873888654,0.4279354566397144,0.4686027565613251,0.5173345251950756,0.566427306263686,0.6155200873322961,0.6646125526441482,0.712844901600501,0.7524566451709984,0.7999698549832219,0.849061460130113,0.8981542411987227,0.9472468153922162,0.9949904998832316,1.0,0.9535579729787846,0.9044850339262198,0.8597442465660654,0.8180647196864035,0.7741724755747099,0.7321177974181632,0.6916892641632928,0.6548693650274928,0.6212930330991235,0.5915533702390592,0.5663118374448382,0.546315677121392,0.5323186667782338,0.5159748770747279,0.4974946619116711,0.4736663260596487,0.4514825247708132,0.4242301964756334,0.3954895132232967,0.3685310329199383,0.3347428297825212,0.3047234594334738,0.2718750646870462,0.235792608277682,0.202775757323127,0.1731680426530357,0.1457034019853931,0.1405075972562215,0.1571002554316294,0.1872824763424747,0.2210639503190488,0.2566702365499009,0.2937801219388751,0.3374576252999666,0.3744638406332474,0.4110710007708074,0.4449596103846067,0.4785632444241197,0.503516244172435,0.526816496006961,0.5421578728486764,0.5454585602644899,0.5542057330161558,0.5456299049696365,0.533661234053108,0.5328341114844009,0.5328338175039757,0.5329584335996451,0.5395474634439632,0.5489152934096211,0.5564849563655501,0.5568912668048114,0.5647100555745674,0.5642166157549307,0.5569500568144763,0.5625826474402844,0.56090841142092,0.5629231066474829,0.5496010108447964,0.5340142068708125,0.53287594279344,0.539215995134704,0.5608773850462092,0.576006940786618,0.5972536886760254,No
21,0.2559471423302804,0.2659768726601335,0.293471142261003,0.3250562718931977,0.3605814457639067,0.3975481242602376,0.4380069880092696,0.4772635291727567,0.5173157999658999,0.5587344854159912,0.5967677937614471,0.6406467723322855,0.684453260762979,0.7221034478159061,0.764027507195411,0.8081631331230841,0.8496588105264062,0.8876712699494864,0.9304833778595674,0.9665234273474472,0.9896507275394736,0.969480784603677,0.9309637851151976,0.8869276019903092,0.842771829143266,0.7986755309539988,0.7587273362199509,0.7193303479866155,0.6752438282849782,0.6310880554379357,0.5869322825908936,0.5427765097438502,0.4986207368968078,0.4544743035365326,0.4125920077616221,0.3749165520023214,0.3310926550530235,0.2869369631914775,0.2427811903444348,0.1986471195919086,0.1620584864690732,0.1778753097912886,0.2177283106328578,0.2562843090585416,0.2815943645343841,0.3007340362995618,0.3028737280075457,0.2982249042305034,0.2815132984935564,0.2601121965230775,0.2566916216701611,0.2749741444681957,0.2878920568302847,0.2937340678680538,0.2937989887138936,0.2901874464129677,0.2892696889809472,0.2851333615393872,0.2815868291321437,0.2751636062677538,0.2654096940588597,0.2577226511821207,0.2605102760544804,0.2615965100394668,0.267797892277289,0.274628844471481,0.2679460413789127,0.2659931481223865,0.2565936443913557,0.2396410857946922,0.2121558400034893,0.1827240632372193,0.1530959124548194,0.1212167713923282,0.0912468818328133,0.0594016834407871,0.0294825666720517,0.004039384360043,0.0082576012470316,0.0315703671688749,0.0583156817171888,0.0863630894731706,0.1138989826298584,0.1415599077472817,0.1704822706530409,0.189828948586284,0.20912998620577,0.2250623063113366,0.2391111227292748,0.2506078559691753,0.2611179491290929,0.2807803827735033,0.3096431669525332,0.3500803327398112,0.387532745626864,0.428861138515539,0.4658925265970095,0.5089636799182351,0.5516684694600424,0.5888863143212826,0.6323293643764427,0.6743324387340406,0.7119297602956411,0.7557084428025447,0.7991946475221088,0.836378767324164,0.8790748242173976,0.920877990822031,0.9582176231498633,0.9886184608884272,0.9809733837974476,0.946468414396722,0.9043267077257124,0.8601773357258597,0.8160893005193315,0.7762911651418518,0.7367406021941831,0.6926493348675715,0.6484935620205288,0.6043377891734869,0.5601820163264439,0.516026243479401,0.4718704706323584,0.4277146977853152,0.3835589249382727,0.3394031520912308,0.2952473792441878,0.2510921031679425,0.2080759596294144,0.1982829037900115,0.2362004937397952,0.2718361316691779,0.3015815501794612,0.3117564455284005,0.308635008428584,0.2932184161117497,0.2715930749328641,0.2526597101187391,0.2588718804340126,0.2769860610424597,0.2868944406465825,0.2894070415703567,0.2889521112276478,0.2848033588739462,0.2847095068283809,0.2809498521329314,0.2757618065644887,0.2738440219128222,0.2668236813047675,0.2602626688452634,0.2575712853879903,0.2626160767098608,0.2695641550550616,0.2719221705142955,0.2664073220153913,0.2593408365221303,0.2463711150935479,0.2257613096163089,0.1943973565362451,0.165930872728329,0.1361479980861935,0.1043047599984168,0.0726052758215056,0.0423524436342885,0.0131481072211756,0.0,0.0216817163294307,0.0474141351526615,0.0746738938767024,0.1020852127106619,0.1285897494448111,0.1550904949204472,0.1810419660464612,0.2015283421683953,0.2205911825311506,0.2373645815947136,0.2537436596188598,0.2649179263210979,0.2756997983024307,0.296737678445651,0.3291107954090275,0.3646024548091691,0.4059043030062188,0.4499021095130158,0.4886973638685121,0.5292873311008781,0.5731682582289881,0.6111136189167683,0.6526455413367986,0.6967442155784014,0.7370068067470714,0.7761092123804607,0.8201556876384153,0.8626494449391457,0.8999367267690812,0.9429605213211504,0.97884459379305,1.0,0.9804958908742294,0.9384424771421708,0.9042714135427374,0.875655890726251,0.8465811521150042,0.8168095738590746,0.7800703349464966,0.7360308452881767,0.6942176514695388,0.656493254185126,0.6126481360399096,0.568492432379152,0.5243366595321093,0.4801808866850683,0.4360268074914182,0.3929771567810498,0.3559363552049552,0.3126520406985473,0.2684971129797364,0.2243413401326923,0.1802986739593692,0.151725046488919,0.1829866437512399,0.2270746584243732,0.2683470760628375,0.3006799452181377,0.3190291454525618,0.3196388859723007,0.3070686412609822,0.2873784399607992,0.2674201286132243,0.2638872159027658,0.2779884162723012,0.291893688315789,0.2988039684802608,0.2954332713578804,0.2938404117001159,0.292870775300122,0.2857099286591968,0.2797723516681154,0.275456842069435,0.2694476662467611,0.2660874990937618,0.2609573254286379,0.2646257642958398,0.2682597350738718,0.2753785009760243,0.274094055716483,0.2644916482119004,0.2551001381138333,0.2401893223186719,0.214938459438305,0.1855175432602454,0.1538911905686222,0.1236339730981932,0.0921435443348235,0.0635350161462195,No
22,0.2726633654956527,0.2960706440557024,0.3219773899066684,0.3520331221099113,0.3876545708736971,0.4273879304429084,0.4714552666744764,0.5150391974798407,0.5614295414088704,0.606407586336376,0.6561024717656605,0.7003337588830438,0.7483364229451708,0.7953920601567244,0.8404121893564054,0.8901024749185895,0.9340697709219444,0.9726869565648188,1.0,0.9870354845768629,0.9416597899026352,0.8919273273498827,0.8479121307539434,0.79956340185362,0.7493054043179668,0.6990410562153668,0.6487769461349377,0.598931618606303,0.5548361180672792,0.5066292127789791,0.4566880136616358,0.4159575094926782,0.3730317901644757,0.3228899623456063,0.2726256142430063,0.2223616287800849,0.1726795924369633,0.1387872180247034,0.1608481451268784,0.2101216002984292,0.2574166326677596,0.3022233330989614,0.3497311743376208,0.3898615964388212,0.4151559939996756,0.4196862309872753,0.4163667348790336,0.3967828233120041,0.3806125366052268,0.3644008313903986,0.3696466738578454,0.3838771797924698,0.393297618672962,0.3889735486933776,0.3923928967820635,0.3915869167788752,0.3865988376761062,0.3767934074313914,0.3689412104863514,0.3721219234994208,0.3829434544908505,0.3893862078085321,0.3827367448249028,0.3615589031682369,0.3360856380297456,0.2995401914733264,0.2612433350077805,0.2200887614337621,0.1871859098634836,0.1462947041836293,0.107142123343533,0.0761356612662997,0.0400980250981379,0.0056548043168556,0.0,0.0304086001178327,0.0691243836420867,0.1051906430088118,0.1410181296821098,0.1729149455526877,0.2010357254778509,0.2284439497404451,0.2576831426419181,0.2837862618492301,0.3103558770459078,0.3394439004564529,0.3766743666313044,0.4177552915693414,0.4661857947636545,0.5150173140758179,0.5582891056871986,0.5968308625394951,0.6303029642373286,0.667652254981068,0.7158069017162052,0.762549259713194,0.8078428438022189,0.8561131864354778,0.9000421485845607,0.9457754547719022,0.9775597542410096,0.9621870898052718,0.9199570188946926,0.8720175691146927,0.8217661627237953,0.7715615826651041,0.7251837157619168,0.6795260525195557,0.6293633339637423,0.5790989858611426,0.5288346377585422,0.4785702933958045,0.4284207397728281,0.3829128737437164,0.3363803648629462,0.2861674608958888,0.2359031127932893,0.1856387646906889,0.135609488554051,0.1071634271082659,0.1447352283336971,0.1936497314986129,0.2373248277888493,0.2863429546167506,0.3303013103978676,0.3743972113902816,0.4057618369738147,0.4149999451718578,0.4175520485315374,0.4031231856889468,0.3802422405778061,0.3694963381182747,0.381632674751464,0.3934827544670873,0.3943991561619806,0.3944004157231577,0.3944002409127656,0.3940386716398227,0.3876719559453194,0.3796379959406621,0.3813124916715213,0.3908614830883616,0.3974427190001586,0.3911721131721719,0.3711637924718465,0.3410627941729565,0.3066934044912028,0.2673267527994671,0.2278353325995454,0.1875893016517593,0.1497913165117195,0.1178981638384422,0.0776497176592343,0.0354094120106216,0.0127407201054499,0.0332325975801734,0.0659110590462737,0.1003519893391637,0.1360011219248014,0.175265822299806,0.2037716615371829,0.2299415192630185,0.2559200542467672,0.2778414309181791,0.3044621791613511,0.3358906612273822,0.372444295089311,0.4094114935126203,0.4416334383531097,0.4867841032637479,0.5306294011264221,0.5782682366184331,0.6219638719065583,0.6710004719798026,0.7191666989423167,0.7578295941610913,0.7964625551761706,0.8435194590032722,0.887995769547226,0.9359211485861274,0.9517711056315834,0.9210994429117942,0.8735755930166,0.8233481682970072,0.7769145173371497,0.7426848889114013,0.6983689539990412,0.6482336766680146,0.5979693285654153,0.5477049804628158,0.4974406323602143,0.4471762842576146,0.3969190334825223,0.3484685080765779,0.3045334635288284,0.2547731821074519,0.2045091073949618,0.1542447592923621,0.1040961924325212,0.068440620880755,0.0983992073054091,0.1483743243797104,0.1945288987982574,0.2403935649658581,0.288234151183917,0.3319575699332788,0.3729714908508597,0.3987412967904975,0.406960272711458,0.4076038615601085,0.3865977344939924,0.3636347754403333,0.362580038461836,0.3810178424949813,0.3936670957276325,0.3943999465264687,0.394400415723146,0.3944004157231455,0.3944004157231451,0.3943327391510096,0.3903212278858605,0.3858338480694028,0.3859326913082177,0.3912455372852974,0.3942935389327759,0.3884256599591367,0.368087081502719,0.3381556848982165,0.3015369569072728,0.2594656389310636,0.2163030610545695,0.174425659474469,0.132924326308409,0.0936337512952483,0.0543271469318888,0.0229483464132933,0.0319166221059321,0.0659604206730559,0.0897908498732313,0.1141986481230241,0.1518727582102736,0.1880060998270807,0.2245434464650564,0.2233967741270426,0.187890304648036,0.1652002959085479,0.137746944532547,0.1070538311802269,0.118244670770768,0.1484099286018114,0.1805598704671724,0.2099070213192984,0.2362593431041308,0.2646680039759859,0.2883333406719741,No
23,0.6517454262645441,0.6984097494007666,0.73215481550743,0.750542124292076,0.7303567955514767,0.7239255011855179,0.7188333622975773,0.7186111891313129,0.7386002364295265,0.7585486504527426,0.7717125506524303,0.7966660741931415,0.8141476969176367,0.8241561239341642,0.8464917093984008,0.8513336305202088,0.8505914845149287,0.8298399168250516,0.7891911719919507,0.7793992934839147,0.7955688651743129,0.8149932288404922,0.8396363946260412,0.8670672562682702,0.8690863228479664,0.8540453373807608,0.8032917855333359,0.7336352644881972,0.6690242021070532,0.6006785730516895,0.5390882777451398,0.4757067448667653,0.4000432918288323,0.3346249326604305,0.2650713714129367,0.1892561195342001,0.1258036896718812,0.0638703665210504,0.0616755659856975,0.1164552051353919,0.1922996647835231,0.2687549828562132,0.3413822716521482,0.4042172975025826,0.4799506681443009,0.5564148589110895,0.6328790496778787,0.7093432404446678,0.7858074312114569,0.8622716219782456,0.9386752181032398,1.0,0.9663880258715722,0.9059743179676532,0.8493492488687462,0.8082484546764381,0.7778627565791125,0.7537711516412955,0.72301050496996,0.6897135465284987,0.6604090501568973,0.615195687059142,0.5735429275056712,0.5275089501984502,0.4787403560667402,0.4276224699756334,0.3688146519248625,0.3136645065932097,0.2627627660152694,0.2158887150651574,0.1702953000228202,0.1379811651469218,0.1254227301255466,0.1624835649744058,0.2067782406227571,0.2626683350906558,0.3176381813746896,0.3779808671995095,0.4359796245837506,0.4933123148024001,0.5504283789758193,0.6034288500297267,0.6594074990763241,0.7151637917081262,0.7743443423818297,0.8153361553306282,0.8231867966128941,0.8089286758926866,0.7958341857462798,0.7814070925442418,0.7785368200254146,0.7819538101111903,0.803618752213112,0.8195383052368115,0.8420372029905954,0.8512481390722857,0.8490287423700851,0.8345786574889402,0.8331430483988544,0.8326634775550183,0.8150178411012541,0.7837770909967774,0.778930418997025,0.7919281531213622,0.811040694816608,0.8362926835460196,0.8692138733410024,0.8868924422550108,0.886135169833818,0.8504053445332551,0.7887685105322997,0.7225732857483904,0.6555117013955747,0.5931036603250011,0.5199964843681517,0.4435391487315625,0.3672396359697543,0.3010755184263582,0.2322875232954402,0.1559862466005341,0.0882908251199516,0.0396587139097164,0.0538818145468016,0.1129248900013508,0.1857940590929248,0.2357067810577464,0.3052003878179259,0.3816387632913822,0.4561856007309712,0.5183177637848901,0.592827662225468,0.6692905690906605,0.7457547598574474,0.8222189506242374,0.8986828204156274,0.9730500732024931,0.9824784261105886,0.9241637462103708,0.8638198452601502,0.8128723430888041,0.7675963579215543,0.7309263751784933,0.7010988442407977,0.679629435049327,0.649626485911361,0.6100908888209582,0.5682702493461003,0.5299880846971878,0.4872247412835753,0.4415772837067591,0.3913400933524635,0.3403802889917591,0.2893699703857568,0.2323523361375792,0.1757348558311733,0.1331642591091539,0.0950660313991091,0.0704211374158312,0.0866976939299686,0.1359253887637725,0.199870649537464,0.2572536905757778,0.314856022207878,0.3766655024252956,0.4382288186087,0.4960277259019365,0.5530940491370013,0.6063138170095121,0.6660395019616496,0.7130657327998424,0.7574524987632705,0.7771230535643276,0.7678624097079658,0.7488092026479922,0.7301420953586861,0.7242136580011969,0.735482826026503,0.7545959802409952,0.7732351151491832,0.7880351835391921,0.8028225558885538,0.8179693368561223,0.8322783728898862,0.8331424064480757,0.8331278708138732,0.8282657511177578,0.8005188369755172,0.772880033435543,0.7538329208078376,0.754274350857925,0.7778548086165005,0.7933663751443851,0.7967276772813299,0.7963901925647114,0.7789579243055162,0.7292175406448211,0.6590735624878832,0.5962629075414809,0.5239667985712622,0.4592176810606547,0.3936090852010268,0.330060667215776,0.2550632813434355,0.1925769467846967,0.1194697708278469,0.0437640373903787,0.0,0.0353914168656293,0.0963079861534752,0.1704546789883148,0.2469169439027077,0.323381134669495,0.3998453254362846,0.4761680011305191,0.5432813037353674,0.6111302392600235,0.6874963287970619,0.7639605195638515,0.8404247103306415,0.9165272335831722,0.9565602419070668,0.90459674506406,0.8394200606965914,0.7845999024002244,0.7376718341625668,0.7005155295751893,0.6610288753433511,0.630686131477872,0.6076553881081139,0.5763960557662218,0.542620052212893,0.5085202324524327,0.4663606497798866,0.4256530892415657,0.3797255353252984,0.329308953346163,0.276967310844189,0.2287144312449518,0.1780668787949784,0.1404811271575696,0.1250050815758205,0.1462151257763326,0.1844339631564868,0.2317717958009963,0.2956195626411255,0.3548544104667259,0.4122657136326828,0.4696083296668751,0.5228992340307834,0.5790127505276805,0.6323091426580287,0.6826137738082512,0.7207718005249202,0.7410257464510006,0.7302954998195474,No
