,0,1,2,3,4,5,6,7,8,9,10,11,12,13,14,15,16,17,18,19,20,21,22,23,24,25,26,27,28,29,30,31,32,33,34,35,36,37,38,39,40,41,42,43,44,45,46,47,48,49,50,51,52,53,54,55,56,57,58,59,60,61,62,63,64,65,66,67,68,69,70,71,72,73,74,75,76,77,78,79,80,81,82,83,84,85,86,87,88,89,90,91,92,93,94,95,96,97,98,99,100,101,102,103,104,105,106,107,108,109,110,111,112,113,114,115,116,117,118,119,120,121,122,123,124,125,126,127,128,129,130,131,132,133,134,135,136,137,138,139,140,141,142,143,144,145,146,147,148,149,150,151,152,153,154,155,156,157,158,159,160,161,162,163,164,165,166,167,168,169,170,171,172,173,174,175,176,177,178,179,180,181,182,183,184,185,186,187,188,189,190,191,192,193,194,195,196,197,198,199,200,201,202,203,204,205,206,207,208,209,210,211,212,213,214,215,216,217,218,219,220,221,222,223,224,225,226,227,228,229,230,231,232,233,234,235,236,237,238,239,240,241,242,243,244,245,246,247,248,249,250,251,252,253,254,255,256,257,258,259,260,261,262,263,264,265,266,267,268,269,270,271,272,273,274,275,276,277,278,279,280,281,282,283,284,285,286,287,288,289,290,291,292,293,294,295,296,297,298,299,300,301,302,303,304,305,306,307,308,309,310,311,312,313,314,315,316,317,318,319,320,321,322,323,324,325,326,327,328,329,330,331,332,333,334,335,336,337,338,339,340,341,342,343,344,345,346,347,348,349,350,351,352,353,354,355,356,357,358,359,360,361,362,363,364,365,366,367,368,369,370,371,372,373,374,375,376,377,378,379,380,381,382,383,384,385,386,387,388,389,390,391,392,393,394,395,396,397,398,399,target
0,0.4572598125494503,-0.433402250185172,0.9513132910239025,-0.1187672255417599,0.37203375104764497,1.9173410144428074,0.503248108246341,0.9962784824947112,-2.3067440967139348,-1.2948904239031906,-1.0298844198790775,-3.2997305322400745,2.3713328997855974,1.635685034839661,-0.6007561107786317,0.25913424475018876,0.3922109269645312,0.4321523791481479,-0.8061669050373172,2.2450528717592966,-0.9361256319061905,-0.06766331753115006,-1.856254507057047,-0.4992246108504298,0.1501309269526981,1.0268373669292317,-0.18409586271764378,1.0705051688058158,0.20837120679592114,1.0361571998421981,0.9173083577594925,-0.0003300348907542726,-0.3798823060963036,-2.7388667630980748,0.15068392934585312,0.5997700405971852,0.3551429754489949,1.0941105866079295,2.0489852956619776,-0.485500186838192,0.6798353949808456,0.45298573866679587,2.434092556824088,0.3839800148674401,1.9383601155426933,-0.692053639629238,-0.9183816985603179,-2.198138737669181,0.443075915315846,0.11844044413736904,-1.6889786365585404,-0.05106142853100741,0.2643654218077095,-1.1604276986652713,1.2170345011162018,0.7100069964414006,0.4861271192767321,0.2879073323206662,0.32643298477311944,0.9971212317492005,0.547499834270934,-0.02212721880656264,-0.8063183139804877,1.3034148688590503,0.06363454341659282,0.8032463778788217,-0.9411629016865716,0.3553931810321184,1.3838227105368965,0.4129325919307818,-0.30795755178704576,-1.355816335454911,-0.2720371833291517,2.0661711297358836,0.3920021640175738,-0.21262894234389274,1.0046437575961467,0.9206232734401738,-1.087756888731326,-0.1649655244744434,1.5299408819729823,-0.18812156483671919,0.8094003103256149,-0.4820308862753346,-0.02545190879117291,0.763768026590752,0.2745807365157428,1.3569791214027267,-0.5362573155894151,0.19154872630182337,-0.10812855005897135,-1.169230796867255,-0.30289996674629155,-0.021624621757303272,-0.3406080751140824,0.5576139682333345,-0.5886615596563757,-0.9319324239623039,0.9770676879037502,-0.7356348857867797,0.6393829553013349,0.3148771232229736,-0.5146494110359983,0.025888698427151528,-0.23823695592461258,-0.43387773779678596,-0.13424132174192485,-0.5215256035935508,0.6133217704906407,-0.05836360765543759,-0.19324036079706647,0.43368603531634164,0.949240075260447,0.9409673440089306,-0.5677465750709909,-0.8466740456695281,-0.4769774391522132,-0.28715377862978697,0.3006040332443896,-0.9587703799765054,0.9271892838930323,-0.3303352897236854,-0.15073220091543346,-0.7258626385734143,0.45765938272289675,0.5515099135018363,0.1166848338493881,0.3173767559918071,-0.19785911282784552,-0.5050702573739125,0.3943625188384241,0.32423334440220103,-0.2308160594195887,0.20798965072886616,0.493023753913467,-0.8256499065517808,-0.7238880192005862,-0.9326829508407424,-0.10187988674659355,0.5581587179848243,-0.5294296159420661,0.20422101015709174,0.3199834283639103,0.303856842402343,0.08605577528936255,0.4184199966039849,-0.4711234865137886,-0.3037385830343125,0.11552864140098187,-0.45316650308940076,0.4064397146926703,-0.249924802984593,-0.0025869020827258976,-0.3335624749620586,0.06094311194376211,-0.2006325040966576,-0.17360721251697775,0.37835105761748283,0.11879496461137515,-0.6572662570653481,-0.24201136041850158,-0.12693095418136793,0.21632900385925152,0.5149435370234469,0.22965100720602682,-0.35581271135763676,0.36206175946769176,0.14014585122149723,0.31935720027579323,-0.08636017323079413,-0.11048002991689361,-0.036743493696637104,-0.45014409096750296,0.1376779230818291,-0.33550138677350494,-0.3777333568519686,-0.6783990878457787,-0.16587564092591245,-0.5786896612938931,0.5397995313602515,-0.17008381623975258,-0.21350014000925688,0.6056102259218604,0.2970790993391571,0.20913673840388558,0.5149919740834914,0.9278444707471639,-0.09601617611386594,0.4000058208923979,-0.3774539457392887,-0.07809341756124964,0.42245821417744484,-0.033762069835024576,0.008008809938333292,0.1109825274148276,-0.47875116587645294,0.1275034808619866,-0.28523628236682164,-0.2359348897215295,0.6847870232295635,0.20923207370536384,-0.6114664111492983,0.7143114858609191,-0.07084087997786838,0.33144201414145436,-0.15129827838326315,-0.3945674399606535,-0.16033257543023471,0.3965117704533566,0.09827017083799043,-0.2346407961706044,0.4705312839652355,0.02814639302210402,-0.24169596273892244,-0.3550884774915012,-0.17982217080963692,-0.018883840193987103,-0.7854412692093624,-0.07026885379468886,-0.47480964536728,0.02757194695106616,-0.23655269251239,-0.2550536834172991,0.21870896303213447,-0.6811234522770887,0.5336739309700907,0.09517341953585075,0.09524491337178811,-0.14588077892094534,-0.9114185564873872,-0.06269206870213762,-0.31573250830817784,0.11609476724979569,-0.07270082771639107,0.28452153854108514,0.4371243974014714,0.3080955023906537,0.2171709021723129,0.41352275760217105,-0.27958282940753426,-0.3753379621173224,-0.08632573892193038,-0.30675032429289284,-0.034886622479126224,-0.05618715212328747,0.19164139940706373,-0.3440850940900631,-0.012247521227820638,-0.44530440427076345,0.22785099114374502,0.1908761939243631,0.1629886325588934,0.0484545947941574,-0.4846127511959657,-0.1535154703014978,0.07167246468293072,0.1347260865635661,0.16486979464302023,0.08049479388728879,0.18647074752780016,0.2723305359930496,-0.06161424687430745,0.16985969283484398,0.3196965188828293,-0.053241313154807846,0.053793530865357236,0.21308216922899892,-0.5285466753874052,0.0118938650138004,-0.14893428698424527,0.14803025189014835,0.32884862033390133,-0.1296947673573406,0.1617066787050128,0.3702137771157225,-0.11439551542056565,-0.07110124804619389,-0.21644179170991984,-0.14607872748750897,-0.11489217222247024,-0.1625164711575568,0.30188161562747856,-0.030959152982998894,0.010336374334721121,0.21882797669800166,-0.11850528141912925,-0.05688119204799956,-0.0888305587567383,-0.2346706709338102,-0.3345574265217841,-0.17755340017920257,0.536213673542382,0.051487613278790124,0.09160948170802935,-0.01430636268395537,-0.020489784617702046,-0.013843656754977968,-0.1980796285926254,0.019067682273813856,-0.5407244141904696,-0.11015775823330427,0.43372522016755477,0.24158805393728705,-0.19225682573194175,0.01313180609941041,-0.31046626241520936,0.17086546742291991,0.03661857260624394,0.17230721886275077,0.10782793134504798,0.33526739994752686,0.12498882256367409,0.18912752598315466,0.10716215123826994,-0.1323812120730061,-0.19489490297111017,0.05799155302405985,-0.2040625469950703,0.1999326773773955,-0.10110122875508608,-0.22510830546470806,-0.1474505285216673,-0.050484094945059205,0.08185466474276218,-0.12167583378381382,-0.16461536676190472,0.024496495934364794,0.17062357704064318,0.045312042778754495,0.13402672087483788,-0.28147814463980153,-0.12281031402643819,-0.05312574601023446,0.14443843721919417,-0.005305743845805642,0.17661844079683253,-0.19329102695317427,-0.13003798049365073,-0.03617792080306977,-0.16889491346199426,-0.06046953298208354,0.25258208150312383,0.26688349275938633,-0.18987945015122104,-0.18772538714628992,0.15233925214262892,0.04497957140751322,0.021862358361407087,-0.042472616785939804,0.02257297963082217,-0.030564384355432253,0.016808082662735573,-0.07841830624854501,0.215838901283245,0.06964041909846358,-0.21948792596409794,0.11389107533064201,0.0629998994829252,0.09093413296625538,-0.1395676175703995,-0.11761414715320336,-0.006891257070229336,0.08684291605514989,0.14373782661306497,-0.0608377463712331,0.016622333554805,0.062480563438800985,-0.021099998189470722,0.17282773661468265,-0.09087357850708006,0.16197489186498776,-0.09208793647863792,0.009755426600721215,-0.16632551126127074,0.02175630195386503,0.2628073595610507,-0.05845828160243052,-0.03416447755913139,-0.029757177551148983,0.022859955416649886,0.11525808916743441,-0.11716516341125656,0.11660745161492501,-0.10908778097643564,-0.07164698961825107,0.1376681964431041,-0.12412261827577736,0.12329868336220243,-0.039744726149268404,-0.03180963239365152,0.08055735580818771,-0.05608235126864406,-0.024045220072140213,0.05260061165456948,0.1549593534939338,0.07459950196473136,0.13808728479314664,-0.03899547386231284,-0.00780749164912592,0.11950245444956412,2
1,1.4828711275722806,3.9238331819541146,-1.001671801957153,1.1517861059390515,-0.10563354226587987,0.9354461762802191,0.061538482507309505,-1.3404588371067978,-4.633609994469047,-0.48350157375173547,-1.8647589895776768,-0.26163992889367965,-0.3169982149012548,-1.5348672702789419,-0.11966958739254026,-1.3976510146766248,4.349664319075487,1.6877759736178721,-2.018024050476465,0.31195691162211203,2.4260698878426052,-0.6110891442439534,-1.777596615077546,0.34912480471809676,0.3468886565475049,-0.22657673527729383,-0.7761293300240589,0.32302654458377145,0.16000759644435952,-1.4922107352858127,0.15392600461718375,-0.159457204136795,-1.210118573444203,-0.08617939408069146,0.7694361925602624,1.2679690067931004,-0.5646593448389452,-0.3414184045596825,1.9852300658234872,-1.558438901550929,0.3919688797759024,1.2591452311499056,0.077663889603958,0.7809117366892491,1.6387667040541598,-0.692444477578902,-1.4934462812353841,-0.6987696437445547,-0.27199697670849615,0.22211401403682315,0.5339585849256236,0.7264997849362346,-1.9346813183233005,0.45836350562900935,-0.3058431699085738,1.4176651662955981,0.569693044541604,1.2989900228323628,-0.8582860352970196,0.7302037933133648,-0.5078869453610164,-1.5803484083129706,0.6522664144263881,0.22136420411723048,0.27007573595052714,0.9384293176516603,0.283154658743429,0.14452172494760732,1.6337782469171187,0.36381970798531543,0.5286156264026926,-0.6437450813273159,-1.259893707893495,-0.4649943559651138,0.3776895625696226,-1.0707843852892391,1.7318749035980794,-1.3731529438528323,0.698832907103182,2.36495048334222,0.7205734075647248,-0.010649356659820362,0.7829072979894944,-0.2557317916614402,-0.937115400557578,-0.20070190578492517,-0.24568306092129016,0.5661317482681402,-0.8046346911990043,-0.45417037568829055,0.35287488518025145,-0.1649538554946092,0.5196484047376677,-0.47132443366246646,-1.1792374256836256,-0.44747720269914715,0.6336930372791147,-1.5379694403511155,-0.6784495342702505,-0.4223123188601057,-0.8718094880876781,-0.44050217290860727,0.6718132967711566,-0.32054681185391715,0.5022975218166205,-0.3403531552836028,0.044685446123525784,0.20320005515783474,-0.016358753295766863,-0.475081394901803,-0.2936075128867088,-0.6301920990481312,0.008304123202268613,0.11053978850738615,-0.6425219397503437,0.12057511427985634,-0.005704532933144024,0.048435276907438055,-0.0910924804088107,-0.7638358252461249,-0.2565987105116237,0.23014496372453394,-0.7300645214271002,0.5675274218498142,0.4591585873261962,0.3849325427458904,-0.6367507665605362,0.1436595920750582,-0.1675228091040545,-0.1534973381636837,0.20354020196371725,0.4193151117739023,0.5173063622615599,-1.1961549278559922,-0.3529289852713545,-0.16840056819875485,0.4369743046121066,-0.24716662509623497,-0.3948700907674209,0.12404490524433578,-0.028767295128763002,-0.0777617346368787,-0.8223831021672778,0.5458430950958496,-0.32992918690306483,-0.8422055117724868,0.4882125919155684,-0.07971239650987899,0.21324859335408425,0.07915440107455093,0.45292723417272085,0.0871545308005135,0.4784760070575822,0.761648445818172,-0.2181567442806812,0.451600667444669,0.3103223531998952,0.030565725323237845,0.07745255006074048,-0.18185595704444002,-0.2552830269370143,-0.4241152155657712,-0.431704357955916,0.7426973295737487,0.274255411621183,0.7474876046362342,-0.62623321566708,0.6162317849821483,0.18600022971740213,0.44983119242854086,-0.20108938501631737,-0.1597428391804042,0.07431615435174997,-0.20868549861572613,-0.005395632493994367,0.1585641045708429,0.5175566195197278,0.5913944180182477,-0.03813887648621689,-0.014993840825369885,-0.1566740452296526,-0.19538922525105173,-0.16227671509479233,-0.062303336912622305,0.47063473214444007,0.015222990551545384,-0.3838082711590434,-0.46479611369635493,0.6027555304257316,-0.07057383428144777,0.6407595171122534,-0.2291181589199843,0.15854767337747339,0.06265433276882314,-0.019856206576866882,0.08945654124602853,0.3394786860281509,-0.3099911976184393,0.1921889297064397,0.22816282148416192,-0.6270935470886564,0.13392553435868573,-0.09430343082625589,-0.23489224527018115,0.07343755582862667,0.09507143434338192,0.010560887852608624,-0.019387556992961293,-0.2709632465737051,-0.28092662701092025,0.0020386828196965025,-0.37043698433134603,0.1153072740475635,0.003626871027595979,-0.22826133048697173,-0.13392815964019247,0.5453573214384752,-0.3763588105225527,0.021735804530536848,0.030585778053096466,0.3030246192161482,-0.0016934540509621354,-0.260395953189469,0.2783930702411435,0.1094443178120116,0.10933374793746005,0.0008585987040782877,0.022639562430497272,-0.2984888444205727,0.27987519616855594,-0.09370109959010957,0.062001900077463284,-0.2960825607924101,0.6125266050604498,0.21788842536666186,0.3546973221062829,-0.24279756266619423,0.10860608134806402,0.026438642975825367,-0.24809587910019482,-0.42715789764156753,-0.23798693938883397,0.4350146425324583,-0.21070107408638886,0.48632259184606697,-0.36594916420063994,-0.07983622946271501,-0.1006591936829087,0.41292760444042675,0.5102687243459783,-0.14691051420234635,-0.2055570778263493,0.0027981932700612234,0.22238357696390357,-0.07069678493426133,0.11267026227341112,-0.07110874780446529,0.03495821005162,-0.09321991497518631,0.044101460958313306,-0.11330830000305106,-0.04466700667195835,-0.19258636126693957,0.00969506542772238,0.052759017195689914,-0.02884861716501112,-0.1799096199837797,0.164308786834725,0.1685841605035164,0.05513330591831254,-0.46083318742011525,0.1059299507307811,-0.1627009394885876,0.031122506155110637,-0.1362754073815676,0.0013797734419648193,0.27995673941386984,0.03792679094166968,0.022353829633067687,-0.2023359879705636,0.03693162723076723,0.22260812889137277,-0.039278262215106136,-0.0899861251173243,0.19148514625714472,0.37863133980701685,0.07684592857930095,-0.14609628158880236,0.2204976386746751,0.0706399256235473,0.2636942626472602,-0.13933288034459973,-0.2187826140503039,-0.1802274557260512,-0.19613311375193962,-0.13651671587662048,0.060542250563710986,-0.0491171917770326,0.3739717938252651,0.16122679760128725,-0.05819271924449927,-0.3829674839120589,0.19248518232145131,-0.309706153617691,0.007477292761318696,-0.006234066661777495,0.1005829799674886,0.02113755779746577,0.20720907377572126,-0.13913945110234366,0.03478993256879762,-0.059476645331321916,-0.1956365554005735,-0.1710365976910954,0.1280465888671489,-0.04085057426299883,-0.07543475334200196,-0.15059731047882818,0.05609492300454457,0.14836996838725747,-0.08254004600675573,0.04965735297013673,-0.07124711786852976,-0.008288219345252196,-0.09856067877450574,0.19303744698235148,-0.009392583005521458,0.04112090168604823,0.15515508170543066,-0.03532501586308811,0.12071796403857954,0.05289412836259973,0.02328009037236259,0.040530855947364684,-0.01610133364362371,0.06329403095748637,-0.1532602963991947,0.07663081539017982,-0.14842975072497033,-0.08212509903360944,0.023656166719900423,-0.15320709028161322,0.09438899756289798,-0.012657281327568376,-0.03081760659788601,0.07692374988590009,-0.010083813096627047,-0.1937371395200952,0.09981215989999458,-0.023515499570651334,-0.09409799327258417,0.12358081942061898,0.150109770515205,-0.1724647212994343,-0.018418074424529043,0.045930906113346694,-0.040169156200672455,0.11124101184754338,0.12814118287128792,-0.09969048875999266,-0.0197573709501154,-0.06174906975754104,-0.09402315315803751,0.16372700642842383,-0.24607260850531862,-0.11423947297277015,-0.008421319193430374,-0.07323532465609886,-0.04537260481104829,0.028950852974761205,-0.07409315560216444,-0.16080932407129397,0.09178136841256627,0.07253027917082228,0.07396381840796927,-0.04444762145558042,0.3156137576224083,-0.3214198418803634,0.18355998337767543,-0.12094095504540686,-0.1577939530501375,-0.24145605367893946,-0.2743775789042286,-0.12270913779646156,-0.07721496742445001,0.06485447851456555,-0.02077197132929358,-0.17324372312047587,-0.15715968358280236,-0.09191860586284374,0.050718964258530265,0.2773579240208035,0.08965310093053723,-0.025043090289279524,-0.11859397077204087,-0.02126183671014726,0.12023151171303288,0.06780355537953991,-0.03350101798016974,0.12453942954457248,2
2,-6.52484884370839,0.0643802319087534,2.177830310340217,-0.7446319556427656,-3.160053320287598,-2.079289451540892,1.9913725808676537,-2.629458100580982,1.251709551833706,1.6562907253031416,-1.7216000729942877,1.1914013896610922,0.059358482802492854,-0.016666003699293944,-0.589976960898368,0.27738090298821866,-1.1641495794205117,-0.2195961685834708,1.0118408767122666,-2.089700526000022,-1.209511394093933,0.25316535476553104,0.06859060145739118,0.04145849937939143,1.792283253873827,0.73531025361768,-0.2678263927702121,0.49550602078104355,-0.7287213104749845,1.337833295429528,-1.3389470791942284,1.7568413608916633,-0.396807646409038,1.4029928499057216,-0.7426164944395448,2.066993065907472,1.7373001695405863,1.6387684099645292,-0.5075653534393247,0.7039378885662739,2.9547937064773917,-0.7158215172130942,1.848566354625701,-0.452636732010856,-1.0937836720915592,1.5265284552122578,-0.12512296031987236,0.9332414395916533,0.2135567428963055,-0.14172468847792244,0.45850741847075294,-1.379483404281988,-0.5430227865489803,0.49045567724979433,1.112639763088516,-0.7515893358581638,0.09494909607949548,-1.8867403777942466,0.30184327685158585,1.657153240839297,1.544627126046297,-1.077601668743712,-1.6848925378822854,0.12576552608531819,0.8361282878601227,1.2471784884037032,-0.1569650797947471,-0.47305276863806484,-0.17917969749587492,-0.06653393133056418,-1.0292601431383674,1.3460644402686075,0.21198349832662922,-1.6365962789255837,0.3517210763269289,-0.1647128263605217,0.5190590993185343,0.17760534919701335,1.0635925261885408,-0.4679714812152506,-0.06536006258798245,0.6212381848908097,0.26890157959109934,0.1390669248886295,0.1666801797846568,0.8262887318762454,-0.27876781200102024,-1.0580052488877052,0.3062896792571669,-0.09938616281043114,0.061680090201459856,0.22298697153772098,0.47441274930377453,-0.31154198840118824,0.1680864614512114,0.4619771035956083,0.5339429736914628,0.9273625038678617,0.47374077020114347,0.0037604875935895094,-0.2930897782873577,-1.028165092708,-0.046682116516504446,0.7438164615768043,0.4037517014385938,0.04024016505427793,-0.6079238903840455,1.0349752506768943,0.6526482959922244,-0.45956807697274665,0.4766455274089819,-0.12081720727381098,-0.4356480791325849,0.334100848668679,-0.3139058286401775,-1.0032689329318203,0.597551058580042,1.9942782411916709,0.10404726592439562,-0.3151376074261441,-0.11256276193481127,-0.5010478290306265,0.4824440902890119,0.36168034458082976,0.5238698391198482,1.1196640195244272,-0.8739936677236597,-0.6216243504770226,0.36823597094613675,1.2279457758146772,-0.42080076301323566,0.6415492749570794,-0.7168630523642778,0.6829620043432509,0.16340122307140176,-1.0994615990725847,0.1397016444730665,0.6354112896439105,0.08013700544579078,-0.2811045694960643,-0.41331389240268834,-0.13398630819200816,-0.4136525434628908,0.7001194934128407,0.32401890824067175,0.2364334343359821,0.3460157493635424,-0.7030941922311703,0.042381888752068664,1.234520180866368,-0.335130959656833,-0.4255322467689538,-0.07702435323028203,-0.18982342881824255,0.1034077415100426,0.9434450541174875,0.7018328439322381,0.7069960468275405,-0.790327056432932,-0.0024053986267497177,0.1949201085726932,-0.41780423975656705,-0.06562199766844443,0.6314330861654168,0.0450797492908788,-0.9065685831232247,0.5411374540954393,0.6316322502461166,-0.08608001140968959,0.07817218184012234,-0.02382885153337787,-0.11348954893553685,0.1862329002639818,-0.5059556423227975,0.44681322397480183,0.07427051775409928,0.4592365118010523,0.42220578368676254,0.07226399820595722,0.12352467799254159,-0.138746895334257,0.1996156268110744,0.5483725587384134,0.28680586279530296,-0.2699492216148921,-0.48934585425081073,0.506860676314888,0.13142144519180768,-0.3222374753613685,-0.39442264824442036,0.26163132407474055,0.3559580971446333,0.16380465465976166,-0.042477681155901593,0.24426217224539962,-0.42830495652672007,-0.11351292434408927,-0.037111487198893525,0.0855017099947862,0.2808147159321289,-0.5126295729223348,0.22595018048852775,-0.12974324701219403,-0.3986514183779629,1.2188865339270343,-0.34820776096918493,0.230341032437314,0.4325243431305604,0.4618693410973903,-0.6105257853881041,-0.5116993736166529,-0.4548440159352042,-0.02100555009011664,-0.13991841989660783,-0.29078656603334546,-0.17789345520919408,0.4235174811121132,-0.04780739406481389,0.00409847755527555,-0.23094928579347188,-0.38628611893383985,0.07830896400262047,-0.43456246493907,-0.16488545239985145,0.6116450092162908,0.27514225168862405,0.2781933300973298,-0.517477253321703,0.13886337379290728,-0.2558841580825616,0.037786498861474366,-0.49906797417353554,-0.0029919422495264607,-0.06731287665597363,-0.18575078328862935,-0.22373517456502284,-0.2049009622416389,-0.22835261100122764,-0.04243334775170972,0.13483035836634027,-0.2614818022115455,0.23137067676803877,-0.17284267836441053,-0.27475534722396955,-0.026298938303587673,-0.5119379424840783,-0.09764621325663471,-0.2938957121997918,0.15839119451780478,0.09542399183767632,0.18311339655651862,0.24776960138629472,0.318034972781585,-0.011524627606388062,0.0715512703644637,0.1195783987762983,-0.15619422247854167,0.010184443932552547,0.044489103121731724,0.10008945764535511,0.1585924100310277,-0.18575992818485848,-0.27084652171871587,0.05871848722798904,0.024956770015787045,-0.13216868657762046,-0.09455799549691382,-0.13839562231651636,-0.33515633414427165,-0.0005942454273376879,0.09050996540390449,0.30281979832153594,0.2848467434432942,0.058395928723212163,0.1880222777838862,0.05041097944548838,0.002555577866202742,0.12419288366746709,-0.11956957859268831,0.33990175200898226,-0.11026723713921355,-0.1894447458870483,0.13545791500019005,0.06161353113292804,-0.06862398813606377,-0.21773450976473152,-0.10532919231643033,-0.19939056317468376,-0.06268195478528847,0.20540336289031544,0.021977201279582796,-0.31862264515438604,-0.02705237837577736,-0.041446758921941086,0.21648378746148614,0.2886748020662787,-0.3049307130685546,0.2692374804620316,-0.3584205848348548,0.41407566906899523,-0.03535361199167654,-0.18997569948656456,0.21768758210482925,-0.0252347023826085,0.0004951803719949946,-0.4782076243569026,0.02479903521974751,-0.09915873052864772,0.08003540126966058,-0.027703108319518464,-0.07278998362751489,-0.35187653001144803,0.13247447497495968,0.20014705511959174,0.10504178535804744,-0.23977889782033462,-0.004784072116884412,-0.08297206964365277,0.34082677066633615,0.005587027555597533,-0.23796265326333885,0.1624953833188433,-0.10288323900565018,0.0769404287439245,-0.14280007970602068,0.0018344939608702288,0.24991438225295354,-0.4424566915269705,0.13957686933690713,0.034455140064449594,0.07461791854001276,0.04670801910731321,-0.022785212284641112,0.02537976324401925,-0.13200944419344793,-0.13217469098683174,0.07131188757255622,-0.16113291983901026,0.018608161515324354,-0.05650755208490652,-0.25242811294061845,-0.1021083152213977,0.043719828915194735,0.02135075809996753,-0.02170383429186768,0.1578381478294765,-0.17567399924475938,0.048711504252793116,0.10300104327814703,-0.07412175833260116,0.19632002559075867,-0.01861786507636202,0.005821295870944297,0.34213689753377663,0.030250155039579566,0.1510395004986601,-0.02344306134672613,0.039537265597180814,0.11983503993812811,0.14630388652589452,0.290903702805619,-0.21608741004408372,0.07861991975690645,0.1260193121657983,-0.30572888525281855,0.07905551377402219,-0.15956040633587748,0.02778909202696636,0.1410607097487744,-0.02729917699928402,-0.2046402199987046,-0.030743051384047582,0.037583727976393914,-0.027309715225596984,-0.15999379547386375,-0.12491511010045515,-0.15875953989237865,-0.17139790501537652,0.015155322370762486,-0.005480785474361548,-0.06091345474412087,-0.07167293164323953,0.07546989176632497,0.04181106029491178,0.031380714981192256,0.008562107409049582,0.05896480052630209,0.028246204467253108,0.011437201571069608,0.06666857264009701,0.02071650272978054,-0.06356637613422873,0.11822293946210184,0.04433300494354157,0.038904398362672295,0.026338450993343303,-0.06533913977370445,-0.08985304136170723,0.16142970263158346,-0.01308343899297241,2
3,4.6263373551003,0.9015791233075213,1.3514307816010642,-1.76711713906187,0.8701661321514526,2.2100251845204384,3.7106940074933195,1.4781148526642167,-2.4062377133871835,-3.7542952021761002,-0.5577765322417831,-0.7859668231654275,-0.5209488622267947,3.2079374691713727,0.8367120639939731,-0.6330934223786908,2.0505842802078695,0.26417717372480143,0.1616275300675528,0.9222193398174809,-1.3756065905805859,1.4017507597092416,-3.131625298190385,-1.0015837829116347,0.8952105316892678,2.5137849301826094,-0.5181603068650005,-0.4829201173521318,0.045858403315215374,0.7060366201292341,-0.24892307382484205,-0.17331735698612838,-1.0488353626001248,0.13186231546766386,-0.19706426902713198,0.28193458199471777,-0.3823005250264288,-0.7612950058926324,-0.30048264937679886,0.9571673748223444,2.842054919102919,-1.3468619293646484,-1.457817572971665,0.6547457650100501,-0.0875431082344369,-1.0203659795894866,-0.7657424435994336,0.7729086705109063,-1.1217806732234854,-0.42365821887060434,-1.8189053335373286,0.9261397295705365,0.2163830109839177,-1.6624069577309804,0.4862867674968164,-0.1964076678072632,-0.32278398109609346,0.6595593576029048,0.581369415856009,-0.3944593324359841,0.1970946083376416,-0.5790730364143679,-0.11540236026695039,-0.568297477846824,0.20155161477076441,0.4563117338670006,0.14605525675994627,0.13439918256629296,-0.3591096922846178,-0.1010040696644809,0.0001930184200162097,0.4592699876393256,-0.7285173747670355,0.6226338999495943,0.3758591274195962,-1.5030764520347397,-0.4741177709904366,0.5523124195627551,-0.42714791836444616,-1.3398552219011168,-0.1521201653675291,-0.5428852939587874,-0.1499148550222656,-1.282910613134173,0.20487241864431963,1.0304072827972546,-1.9947289957965555,0.04700574358767472,0.06734935350535748,0.03868802379076722,0.4981185364313295,-0.7027001987590885,-0.6263453357110307,-0.41681122131776277,0.2528251572019586,-0.44599461124655454,-0.7494583921643863,-0.4243189721597946,0.720271987497656,-0.3278386617852215,0.058067204406313015,-0.4557891526710855,0.5967615498113875,0.304706487770901,-0.10286961760803477,0.2627131146847924,-1.7609546458832073,0.46937273009885566,0.0025690539156030833,-0.1813999486359053,0.3108762538019794,-0.19121014225146765,0.6183343763546477,0.6209704567719084,-0.9180680383876694,0.38432665576294417,0.2588206463200381,-0.3107262530578083,-0.6891636899422884,0.6070054857879205,0.25776014206190584,-0.8433977337353601,-0.2697397520297746,-0.08489044454859548,-0.3013279022483547,0.6776835531914605,-0.5106488806805061,0.38531247363774007,-0.10975048995915652,0.47516237321535376,0.6222913639178241,0.16624970405607284,0.24305876480393268,0.2720184629807484,-0.006971577797092832,-0.20815001859709958,-0.4691256602017815,-0.15255107581617583,0.14396851503152527,0.5274292867700653,-0.03434016476577772,-0.11537314431189366,-0.06499517382574739,0.5300626056672381,0.049706936576853454,-0.5736970618863393,0.5860039231806395,0.3496521713197142,0.2699542744182056,-0.036421919251118366,-0.42940057532238096,-0.08368325462219303,0.12261899883650812,-0.39192567723490496,0.6871979465853757,-0.4188710399311103,-0.15327519701428238,0.4951113403087836,0.2022061390087563,-0.02919704674037395,0.03874780669279123,0.37014187363485435,0.2819587098933966,0.006852777816721239,0.28689557887592226,0.346031870938209,-0.3685883349651908,0.002295728186864863,0.2511182296322252,0.21131281900761456,-0.36676011866548663,0.058474997176517426,-0.04110371963332107,-0.1267120894064058,-0.5594267752297911,-0.21860748667215935,-0.38064336990242337,0.1637011378041646,0.019265727537727595,-0.024641947099107303,0.19611713840278117,-0.31585560571594967,0.08297181699687212,-0.2400751190254498,0.11662830906831703,-0.34201422020094807,0.06931896262017204,0.36414658997054344,-0.194997393986423,-0.21121637140098737,-0.25987690710348893,0.4838411604929691,-0.32852270639516606,-0.6607315974950472,-0.1456881454149068,0.26584693669287324,-0.368226119764324,0.6309118370084312,0.313243332304202,0.10129796213607108,0.43457961699802156,0.42786193163152486,-0.08665435953649525,0.1220119494988277,0.032466234831296875,-0.01476843097962975,0.46034824808817515,-0.09078957889139609,0.11455441099267767,0.109269744330644,0.283064778716352,-0.398854894777056,0.1530439228308842,0.0949600317348323,-0.02809730807716965,0.14334294076820203,0.0690393430372242,0.14237045730885164,-0.033315911103450405,0.05463676737030121,-0.25797155259842086,0.31114969195177944,-0.17699093777533656,0.2739015974002114,0.2551476333713467,-0.3361418822710429,0.2598282296795648,-0.022424344539494784,0.11058111628490316,-0.020915675457711606,0.025474438479520696,0.42415250996959447,0.3184478935647409,-0.32440895808056047,-0.12024408283402115,0.012137540733735653,0.06991318186302266,-0.4374155600234673,-0.034934117040578805,0.44276212628399225,0.04684713178107298,-0.07605463136487245,-0.43981465439819006,0.21713731381143767,-0.08377882246487543,0.0657487169681546,0.08299634712238921,-0.5507635337087828,0.17886522606100044,-0.22465875345141148,0.0675221563769007,0.42662925262223567,-0.1030394011187585,-0.08132135588825906,0.17773202770503468,-0.14656844606579533,0.1670277722152973,0.16685760013281362,0.08458271698653158,0.2504648908458324,0.22074411909773453,0.32837357078582813,0.02827416652384665,0.27733169338825464,0.46797238524750473,0.24133170492567618,0.3282345669915264,0.24032546351774248,-0.04669071915419108,0.15362169215141838,-0.07986926344108337,0.10111048286572061,0.4499083189308484,-0.18466952158572628,0.005558145023399845,0.032809907377681864,0.5192585118105786,0.2780657800213095,0.05042633352856425,0.27851983554971205,-0.174622001966337,0.04375677126728287,0.12246639454084593,-0.13465829285899683,-0.22483149142343709,0.07786446257091137,0.02312622519211532,0.059530382090913936,0.2631226216802743,0.13906276978000237,0.11903621687936788,0.20485385906188333,0.03951082980117118,-0.1989793611093905,-0.4363113063236752,0.0086789857319535,0.09393806976119343,-0.036947078902919026,0.2625135084118926,-0.4333069056245787,-0.10966298672541781,-0.2195654948021278,-0.5514389580006762,-0.20333562726483473,0.17017125861057708,0.0037205877670569757,0.22859198215105958,-0.2690924017678926,-0.16687936978605936,-0.376603481988242,-0.08398916597360491,0.013804517356546062,0.3505984930576036,-0.2920257749325094,-0.009015818960085714,0.15197678271796436,0.08588750015004902,-0.21836175822391213,-0.24392385688503343,0.18755237773515282,0.12328955597830606,-0.343626877534495,-0.10978534801397682,-0.5454005243678116,-0.09885524321702345,-0.03884268727419956,0.0562865820578214,-0.31618480644821867,-0.13394609801446036,0.038399795538536556,-0.09945067635386719,-0.0026658186578881115,0.21459097896612586,0.3576565408132308,-0.016683286928479427,0.07500478434659928,0.15838011996386708,-0.026642744947538634,0.26018731133952955,0.0782086206658088,-0.05541813811493329,-0.06039344776004702,-0.019240560744865742,-0.14372496004228322,0.04323584923658588,-0.051549821701450435,-0.09373269262808559,0.12414682921616553,0.11677311756190441,-0.2857398575362896,-0.0583940984141938,0.08396243424268166,0.1199765396095072,0.22876675946802336,-0.07022191308995805,-0.05505660356734007,0.18260983429654343,-0.20144452423835732,0.09707100175415109,-0.03257556498485178,-0.02898249587903203,0.1053958668095433,-0.2939208584650674,0.06929393932114511,-0.2562759610655707,-0.2750529322577643,-0.13115012231637255,0.15022634073516447,-0.051979894544494254,-0.05383466115899624,0.08928443188545471,0.044216254626975225,-0.16335192325969386,0.018707711699256686,0.20111926532551871,-0.10013333900712316,-0.022367378096823386,0.03222210292694559,-0.0238315779192735,0.16161693131773483,0.1551959781983028,-0.13688138838551653,-0.119401861124737,-0.04591516449621782,-0.000719705523677357,-0.0638043440215652,-0.01853743805133622,0.011169208007894465,0.06396352244707881,-0.06681165178354583,-0.15692545800614288,-0.01587633514476192,0.09751128436030351,-0.05140508916539901,-0.10176445558961114,0.09210019807401101,-0.1339363854157021,-0.02644343675254963,0.06791583813779818,-0.008877857917859675,2
4,3.8630274325478555,2.805259140607859,0.42845663371136805,-0.4824518722902119,0.23149750749649767,1.9770556386556608,1.6055099500069456,0.6038661563948464,-1.3121704924144568,3.5533962844926035,0.002104831254401129,-0.6353301242433105,-3.934087333349964,-1.73947116196276,0.09249777801247959,-0.3756770130854317,-2.0621967305182363,0.7440166780603765,2.109332842225055,1.5861436827781947,0.19097777871071678,-0.2952585937956349,0.2577487703715271,-3.0297424445098726,-0.651586694462441,2.4868301283420053,-0.7100953521359797,-1.3649778364565064,-2.452239128579071,-0.967986694427902,-3.2288935658669518,-0.3551090462656398,-1.9784440562875516,-0.721650231731014,-0.7638418147542108,0.4078820767670339,0.3988576079161535,0.5989489497741468,1.0798754944419868,-0.5529371266955848,0.4903134385494055,0.5381131115947428,2.30882958432485,-1.3831953313866774,0.5195026279880433,1.0653034819525244,-1.0362198749601759,-1.2711059860444858,-2.9233566397116677,-1.6701013243131424,-0.9032957060913818,1.2662212408722942,-0.19136907098027445,0.052893121328867455,1.0302274908450817,0.4123118582483778,-0.46141954336588487,-0.43227208651430554,0.05366727324085355,0.2088770787527729,0.7171406997533236,-0.019772703604647147,0.2842931009000564,0.6582111725760129,-1.735680065316809,-0.2312061896724565,-0.5785185550556308,-0.8419231818622794,-0.17941563084735296,0.4689082036836157,0.9460695905262579,0.7775884729530809,-1.0652586656805028,0.2200409310115272,1.7070773807734183,0.9809791573475353,0.19816581652974818,0.6042747316537772,-0.8686446937765516,-1.0287379009912159,-0.7317259553184999,-0.8716619247107505,0.7286210460869571,0.6691924009292995,-1.2924674044280973,-1.6716565646838197,1.7088707095858315,-0.48400251317614557,0.29689536277036005,0.3188046790685684,-0.08846880289918924,0.8648114337514078,-0.35452430142530006,0.6222649096490053,1.3234865891867367,0.946861099161927,-0.9363437667526612,-0.08260809741384112,0.6097154025096401,0.14744304712293757,0.13935169717770302,-0.160341005097868,-0.4557144123283561,1.3894185685937008,-1.4194605343985987,0.3987223524065085,0.6860693087369097,1.2771388873344807,-0.0963345036989044,-0.07973249604444134,-0.5980593929253871,0.08515878055142871,0.6785035309621219,-0.6646932978902559,-0.28361062595231196,-0.419108205892057,-0.17221107989675213,-0.6386470472038878,0.34598979501166727,-1.428073274268365,-0.3154935298273062,0.443372864175633,-0.17149656623737886,-0.2389199839506426,0.7501181474125826,0.05208627398881936,-0.4423628736092342,-0.19124306588971593,-0.3824633203386764,-0.5274385872745271,0.014009569168626331,0.28914366974495354,-0.5307524843419976,-0.10987935589153348,-0.4798975999875299,1.5321896174554883,-0.7558343874200787,-1.1569766763707243,-0.7286918627551342,0.1351701535877205,-0.7306829219499098,0.7638852675276026,0.4627759759491229,0.42255133757105845,0.3584706728100527,0.6518983368707254,0.35005362850582644,-0.22515210149702647,0.16139148110641244,0.406616709935274,-0.3164394719416698,-0.14115338118086798,0.03646457007582764,0.8998322201922168,-0.4928666286072871,-0.08463254144651662,-0.5176648280815539,-0.37021015159609194,0.5874715831228915,-0.32471781964593344,0.32469393055680723,-0.07475945344607618,0.0628207815335625,0.29693970146418763,0.7596948113882644,-0.4214674154792552,-0.590643386362408,0.40923581705809275,-0.3304788500293405,0.22041490970476005,0.04503961259658161,0.08367098311845783,-0.5328991036781964,-0.4223000344482225,0.3844070630854441,-0.18393301058862788,-0.4841595959432954,0.17518521402019907,0.5328014802076501,-0.530431902602474,0.032931303783419755,-0.29977054175805024,-0.6435616674471475,-0.05235441656224838,-0.11264498250464476,-0.6383240539682639,-0.014318012033037524,0.24172580219960993,0.28849106330707647,-0.20532021024876984,0.38050742726539477,-0.3533778258947216,-0.023055450602131676,-0.3023194501364852,-0.03308112358010746,-0.44093960025048484,-0.8518426349202518,0.5669233582750047,0.32927065988947885,0.2581429370036719,0.26527939593911953,0.1171015468475123,0.14137958839574935,-0.07022346215356093,0.19391580912272355,0.33780880519856676,0.21423672804986693,-0.3444558656893148,-0.12796614035420922,0.03516798433631698,0.2842405168779026,0.018054420408986978,0.16884748749887984,0.10849478143487888,0.16440220190982055,0.20871373427257334,0.18668448827617395,0.07271584704688844,0.2318950176322919,-0.04032796241049912,0.0188667837044421,-0.1078261464592568,0.1999252146899953,0.41648002295784137,-0.07671216633353886,0.05171232435624153,-0.24353190676317457,-0.07564882803909462,-0.22768286713519537,0.5741103241452102,0.20510537526810022,-0.4471903690658331,-0.2537189522883679,-0.5282540736683834,-0.13880256849952266,-0.6507134509006156,-0.1223131851961296,-0.15331343421220042,0.4257382742651276,0.23707975161437944,0.03752328076853587,0.13809363109080347,0.05265243625959614,-0.06389762500108086,-0.059259880870587874,0.1033160474372343,0.2264224160552303,-0.11680446965035235,0.2843907966484795,-0.16210701941510788,-0.17356488071506118,-0.5154720870837528,-0.31451060803561326,0.032976823098911937,0.08184311023128762,0.2431129088945907,-0.24523323955934065,-0.26194989816850806,0.011269986384829256,-0.26687341367439865,0.09163528005996979,-0.615176511040212,-0.1895248073099398,0.2107604821308481,0.16613321587731977,0.04420950246513677,0.0783384741861702,-0.16304645014632274,0.04122015568595912,-0.013935086577889558,-0.3263138160699751,0.33534975062750116,0.09886040181698118,0.022483593283960494,-0.1519205935474784,-0.19538232718533105,-0.21485863703664315,0.10085850504502301,-0.10601394292613421,0.34317849273654033,0.1156358161088974,-0.18385903614596857,0.03212255041133272,0.047588454131390574,0.25136755485993334,-0.37839699565669377,-0.0027998664866775345,0.16019195329269922,0.0665330103218598,-0.05097593057319415,0.03963522767498809,0.2944749110876184,-0.019436528064855685,-0.38767558404394525,0.036651151177342495,-0.15065167749411382,-0.059272955861571656,-0.02994544427980254,0.01357141425437677,-0.16334264608811228,0.006317534469124528,0.0963291003243704,-0.0233171636162907,-0.11152200922145944,0.05684402390442153,0.01200146816924926,0.022256126153891935,0.17166484652236552,0.17715066335381394,0.2682012552672702,-0.07589969977776766,-0.16126010141593614,0.12940149621967528,-0.21303610344384968,0.28816682214714123,0.032530265112053626,0.08260074970708388,-0.03007689931205808,0.0833128936221516,0.1108014994668529,-0.06615557409747412,0.07225420087311799,0.2269801034080246,0.06516185617118048,0.04041013176506459,0.1277381732822879,-0.00044293452517844606,-0.21557743070892413,-0.08167908490091845,-0.06416604511432182,0.00889102601474418,0.20516962177965425,0.08518992106606958,0.030665229283249745,-0.20305809850309722,0.15014352759858093,0.12370647902174005,0.05447043770975629,-0.2513820768629458,0.16093637445337308,-0.07976950165064867,-0.013109258516950556,-0.0498979453791805,0.048752446024594435,0.0730277029072341,-0.006054242588006188,0.11559943391927217,0.04549970395258888,-0.011149450954231123,-0.05821758094604332,-0.07444797020948855,0.04480032007588436,-0.0763977035646199,-0.3354768443153621,-0.09377174550927181,-0.02505019741807447,-0.06216474228643953,-0.2996514068038359,0.024022895191322956,-0.11073793951478046,0.026755532614338547,-0.044360353187779304,-0.03130198306058893,-0.23721366024119447,0.05643120967727363,-0.033975440141570265,-0.1025133196581284,-0.02125615603530976,-0.0952726404022258,0.020903269485275364,0.13894443025377626,-0.0626677014207883,0.20770954810635,0.19161282990017492,-0.017246616495847248,0.06728118928356275,0.11492457189031512,-0.02908951192163589,-0.036850594456462674,-0.01612668191481684,-0.07247571599217341,-0.044854424296809275,0.17701440818081576,0.05625877822809865,0.04472683090021713,0.031107610418377625,-0.013580969044831217,-0.03513117650789823,-0.03701011363240851,0.1626989339612166,0.04418019249136427,0.07252302031311669,-0.05479572922333437,-0.042024336312701194,-0.13250983488815432,0.2055881605677912,0.0467739188677874,-0.10402008873408683,0.1214191407456132,-0.08904054119599335,2
5,2.58846844957233,-5.339308948232617,-1.5295728287772623,1.273824402931054,-0.8471002767113084,3.063719477165726,2.483445482925376,-2.202443920797999,-1.1984117200686815,-4.532628860149791,-0.8850668177699161,-2.270839784955912,-1.5897907817345451,-0.2332667209046801,0.28522983767459675,1.0565585845410044,-0.2251615702746216,-1.7805007984296715,0.2688683757348899,-2.179158901755456,1.7305449462334725,-0.47140968397572,-0.08795556135709365,1.15552730793514,0.30068487216581036,-0.43009874343231164,0.0785039837939955,0.9691196658606925,0.00010224362603043873,-2.5116667648100757,-0.3062713445168123,-0.16140286832769973,-0.772903024291992,-3.468314319113911,-2.67790623414898,1.5850745177634005,-1.1156919041833089,0.4607837758575587,0.7171710785657716,-2.3481369043665845,-0.7034639075003066,-0.5099883860711137,0.46467312842042285,-1.6066241645649002,-1.2992527432615006,0.011260209003203741,-0.4593176096400095,-1.0441909265941591,1.1966197069112687,-0.06955360872579072,0.08082150525204228,-0.5541127449146542,-2.2051135440979874,-0.9883424883126065,0.4288195918946939,0.2420819333810127,0.03518834449523216,0.20969881558062575,0.2314593336483068,-0.6217491469660683,1.3203676695542454,0.12944219657150116,-0.2758622511340452,-0.06913790529295986,-0.3064079587729101,-0.436668393649515,0.08651834757477657,-0.6435843848738081,0.06620234472653778,0.40169925016310326,-1.1040417116171668,0.9107980041667965,0.6874166587246525,-0.7984351933607454,-0.530572218359235,0.419561412778531,1.2631609649726923,-0.5289117199197778,0.5850889838947766,-0.9524495643884067,0.6844332460026648,-0.2972085261356211,-0.32412666632627884,-0.06660443205184415,0.8325515784250821,-0.5944084282108335,-0.27613199854113935,-0.3010000492428267,0.3330203321853622,1.2995452379223895,-1.251897547028258,-1.1349353207446151,0.2462820594968733,-0.358355856679359,0.0472293863650156,0.2658219857507093,0.8610244078878385,0.30149232050455604,0.7805402273665003,-0.5705544601806584,1.1830382371891863,-0.059339329029864184,0.19777317201181183,-0.15452761516679353,-0.0022109801317608813,-0.3827742797382928,-0.23570992429609608,0.8005533874037052,-0.15883366257325085,-0.13902489610648125,0.33805777982709234,-0.42126415226035396,0.23471567223029485,0.5735587139398906,-0.09466774970003183,-0.5372093407490091,-0.030658106306561204,-0.6608566301289253,0.1731501402526397,0.5726890872624583,0.2703760613372018,-0.06650314469015983,-0.6004572012137448,-0.47919850452182466,-0.8301721744205236,0.5810792470415331,0.26814276653381003,0.3509424636831183,0.09337863190254955,0.08896948147314665,-0.579903380056008,-0.12895253414751465,-0.30592664387323526,0.11735668784627216,0.11898234351774997,-0.2770055452002129,0.2612392471844931,-0.2344676019979357,-0.08167360286654113,-0.298022129939037,0.21428057837662132,-0.7266724256075008,1.2106138097665675,-0.5573822301999344,0.5843108831755262,-0.3638386861044498,0.3744247967534301,0.8160933973668294,0.06953696196619684,0.4895649079665078,-0.12733309800634376,-0.7408900289363224,-0.027889264163431148,-0.37610160198718434,-0.07299790029237642,0.39319938023068585,0.544180552929989,0.5733187705885119,0.09867749754598858,0.16134952955356635,0.16080296700854105,-0.41731097078920004,-0.03760232490656007,0.1390103192077997,0.43402038438318147,-0.027624884696214966,0.26634743815942175,0.20508753659118834,0.2940016361105752,-0.24852882393533568,0.09452664963031054,0.3668490148171887,-0.27836510683533616,-0.12562825048696802,-0.42644317706753776,0.6773128271281348,0.5771048784257322,-0.011163756975937852,-0.14605669014221678,-0.39472865408375196,0.14291227664699335,0.690512270333732,-0.6796631354767768,-0.1882766292320006,-0.17519980339988533,0.08609502457936193,0.15523046903559168,0.25008816404169265,0.15571131021117207,-0.3073457602827955,0.09261650086512603,-0.7628293364276286,-0.016147481537450426,-0.212174762957459,-0.19511144517000595,0.07035211486382076,-0.30509477654154527,-0.19491379669791548,0.20301500901749983,0.034313446833725614,-0.11669795505170392,-0.11616397371010381,-0.3495524702542214,-0.22080586443261505,-0.019766067124420597,-0.3164494742894475,-0.005867487784941327,-0.025220399419838703,-0.2553155715600337,-0.003749512599650003,0.1919735106281977,-0.40082057957655043,-0.03265320297634972,0.31059348876011084,0.275886377270653,-0.016073641624712084,0.04297503676627805,0.015009616951461514,-0.011353901985867535,0.1941679767137799,0.05135112537010397,0.05862751935343106,-0.2514665652716419,0.037475080314411116,-0.44510008626742437,0.43404345902158636,-0.6200833069940168,0.02565788037939367,0.0890851383256059,-0.006006494232414441,-0.005182040026287976,-0.2973449795060592,0.1121222034380292,0.2159004792650748,0.1628993598945753,0.3993964943882456,-0.08815505936681382,0.08660310094615993,-0.4634650529237424,-0.4301521629304308,-0.042035061612011225,-0.40627890168932923,0.45961912347427425,0.034257454606414973,-0.5582704784300763,-0.009764629991075212,0.10141293584048008,-0.055172532815254326,-0.2077735803501006,0.21682440802313618,0.1300656915968394,0.15891983250604885,-0.22164727941611856,0.15841743000065434,0.06619279987929329,-0.23148922294837246,-0.14501465583369053,-0.31408586587526816,-0.03879194653691196,0.06059299918261354,-0.2587077513209931,-0.24198887624085966,-0.11101936502723478,0.4488402083429477,-0.3161413947277584,0.017373913988698877,0.06654849513362206,-0.13179191007280583,0.07339345932961869,0.23290335100457144,0.2685998450372319,0.07650150919501032,-0.03117562922771701,-0.12102894266982614,0.1684166149187885,-0.11087801395825576,-0.27209373174168816,-0.4188204637283137,0.08704536287343374,-0.033632653089363286,0.15870834987226384,-0.3233521172374984,0.2468918230096283,0.16019311733826702,0.07423004187368988,-0.014566616133893618,-0.21203278394272296,-0.15261706533745037,-0.013021235554577069,-0.08701499583635162,0.017844396769188895,0.04628581926684746,-0.023674937202899447,0.03986749029918209,0.25483802320860544,0.21440747580486139,-0.09397252114083683,0.07569648080134844,-0.16640230410615717,-0.2333580525808372,0.5008595363548631,-0.03832651300025214,0.04788115655682416,0.13131532047800903,-0.23601333538715788,0.20921672603261662,-0.08711938595910272,-0.08482077514465941,-0.000618816706254185,-0.12515768121417495,-0.07356765394789092,0.09760217194913605,0.20691988247316132,0.007129994003216948,-0.2814365816719184,-0.014301567748367997,0.06367679729741198,0.029905840812315943,0.012525706527622802,-0.09599344904195237,0.03812244131959925,-0.21064311731903246,0.3692678584348312,0.011163359300345507,-0.2199172798479635,0.4240712332114314,0.021445047360966214,-0.09436994177356954,-0.22839080342749843,-0.08246178592097095,0.004399002165163856,-0.1944768674157879,0.07007792816443092,0.01727304497799475,0.01655473495004125,-0.2934872649773301,0.02276011526086687,-0.18736084756746246,0.061857580354905004,0.25978624051530697,0.19112201160812972,-0.15879940062251333,-0.08815992540456248,0.05724425170672082,0.08103210974335852,-0.022619829388268762,0.18196788206250009,-0.2502271568997372,0.06400982526629624,0.012877968431152713,0.07914909573427632,-0.017347558975973936,0.2383290657508359,-0.0049518206913968165,0.06432105296058986,-0.10664467918709598,0.07463496885725603,-0.09697641268090397,-0.0319755100201944,0.024561955522237184,-0.1371225953637805,-0.22689578502118785,0.05309426736607134,0.03766285400154392,-0.0035588577403481347,-0.13918708992447082,0.09850146242532394,0.025674940544536534,0.11389923035415331,0.1594876521155906,0.04421952550701063,-0.030474885150489375,0.05048894218683793,0.16191645640366606,0.008436667116805746,0.07182145920564223,-0.14355196993637168,-0.00849781032780515,0.14438458878759208,-0.250990921629647,0.03229032097322974,0.07129023112495901,-0.043462405998267194,0.05379418265159213,-0.21632838670712637,-0.029946738908891674,0.2949133255781956,-0.28803759276182334,-0.013968319122263049,-0.044814044199452396,-0.14966099005238265,0.10827603143574983,0.08602349128329101,0.10948737209391389,0.06836733894056575,-0.23970598549211275,0.03090772034493495,0.08816057283491392,-0.05027881789291732,-0.21832510387448137,2
6,2.7767434856775908,-3.5498690550749545,-1.7504779185426709,-0.7335149791153965,3.5921866994604366,-0.830753081932027,-1.6229517743117998,-1.9772757621630197,-2.0105366466017,-0.09505135058112883,-2.266104686657356,-0.36190566836178173,2.0477978277403586,-2.2851020963973414,-2.213538948737466,0.05616633645180938,-0.08866730828849523,-0.3354567319148854,-0.28891758065589485,-1.1774210135986722,0.7394540946690279,-1.4919681148810453,-1.980792708609954,-0.9132834860935881,-2.5880720139252404,-0.23723458175987228,1.391094486936151,1.68575041228952,0.9670883646550256,-0.5918049383735492,0.02875173296398765,-1.615778357406892,1.1183033874401356,-0.9878359687947892,-1.2767648191054142,1.0914437778403019,-0.22376396946487986,-0.8401319905449075,0.08034385865160726,-0.30983375381524153,-0.6149530148445252,0.5894802234568784,-0.38765334721262285,-1.1981982638654674,-1.6378513589031851,0.6218546151497174,0.20849432504008714,-0.03187516511823461,-1.6532818464443995,0.5931169705263526,-1.1613676854074453,-0.4897624301131188,-0.8006613845884459,1.0635516591256504,-0.03857290471631789,0.8088503733482444,-0.23854636634240867,1.2122644089948453,-0.15583188983997903,0.3099030295666771,0.5767967172341971,-0.3509641834132334,0.32586757040285,-0.5318294539940216,-0.11248641606629703,-0.6084455531295775,-0.7506459486425645,0.2780888324907167,1.2826531331898476,-0.022553041519206857,-0.562943558277065,-1.1504356868790857,0.777183446534969,-0.8637562562122976,-0.035819888326177565,1.325154184534,0.7513860821498917,0.5518389597206415,1.5573541071759252,-0.2216491366164786,-0.11683088270246204,0.3522102278213255,0.5170049092714708,-0.06912765854142851,0.028068037050457694,-1.23631434539249,-0.2659387405682245,-0.43948308571624417,-0.06206505904579945,-0.4414526078853162,-0.7138004749164106,1.1477454236615983,0.026036936631926997,0.24562872112555753,1.1452520747432688,0.12871647182124735,-0.09278593170511718,0.21193762853515857,0.2752523161838052,-0.9032087168242117,-0.4187468598989541,0.6291114216842528,0.3797816620501121,-0.5210634924557079,-1.1010592901406822,0.5156864390870277,0.05136428470908964,-0.5671452519574961,-0.27979650084715274,0.09044089002855266,0.5179356434911074,1.0113019733256117,1.0389460184231347,0.0046725492666007855,-0.1631534483939034,0.16465024028161937,0.5260691753802355,0.17308181965145794,-0.19117004539903093,-0.9818461276569044,-1.0944619516752638,0.16755793499796082,-0.4698152331278371,0.2233275965103853,-0.1259801916202118,0.3282261385407005,0.19791663296204395,-0.41840882243095223,-0.5234494146192034,0.8036220075526611,0.1829043437301021,0.5783923653110906,0.4148745195627235,0.013658994837596035,-0.5458809284931394,-0.08894330237481891,-0.4165187539027862,-0.4846778074240897,0.2567858351238958,0.009747767999485842,0.06865593255451458,-0.019223326058142143,0.043748414814739345,0.24722601945696582,0.23262679043403775,-0.3237372860950969,-0.1936408939549283,-0.20348254600267968,-0.11997962312746338,0.7948975047319158,0.9726217303065944,-0.11487085762317878,0.3106752641010344,-0.0005517510590184146,0.17656787832774742,-0.48242884166268557,-0.4539486047080563,-0.43186154132934385,0.6674098881256155,0.1656412659720928,-0.9584087577136065,-0.4538606627854262,-0.3341370156321392,-0.11815999018499726,-0.1873667276052482,0.106508249908421,0.4418491153514898,0.5074524922053707,0.08710874101485755,-0.8881928354058607,0.16894730960493645,0.681086984204052,-0.36916443473646265,0.27811466089150777,0.2721940710469663,-0.9336119524452634,-0.17110898042038278,-0.18695763239090196,-0.001723146187663731,0.07618198389605595,0.12185920454750825,-0.40402438290732967,-0.27810296688616165,0.0032839063366219504,-0.6676452107062409,-0.17320457340212578,-0.0836733842442126,-0.016356906919114837,-0.2133562364136674,-0.41339043380948753,-0.07062360317194155,0.5765539209273401,-0.5216005511149938,0.5616136104900574,-0.10737018205100982,-0.017562554217558063,0.1739938413210034,0.02359233570504833,-0.24629430608881273,0.007330950599976941,-0.6602827471896683,-0.28228807402320855,0.44174569260411234,-0.37890419454071295,-0.08765391433598958,-0.4782604774693,-0.4644813932475629,0.2359881974595351,0.011265002743654395,-0.007270859567538102,-0.050222268142240685,0.5248680129826795,0.3861214276308489,0.15789234935310195,0.444743203863291,0.1417972874717718,-0.38179306418637243,-0.19406631832199384,-0.06721733816724682,-0.35493389267396397,0.14972061400179124,0.4706245446098368,0.17818889298724896,-0.01350055912675529,0.010011716515442005,-0.28811077580297906,-0.0038797454500055346,-0.34707119797738906,-0.01627205485299578,0.28600507761373173,-0.7170832873063943,0.15474096174277507,-0.46629044084684645,-0.08502634627840386,-0.2839955049136283,0.01957534998897763,0.17350598563734676,0.08220700456265606,0.10507442319617916,0.08577215024509124,-0.22450659423196276,0.03832260077693865,-0.2198968995482897,0.18535281765528971,-0.29010207831311313,0.0675607093341765,-0.23067506638263546,0.20995809572632027,-0.03651332556437801,0.4129798580119979,-0.33026554390966095,0.20354908948280503,0.14307319436303106,0.3493708759026791,-0.16830105732664552,-0.16085736237252438,-0.029296808094970938,0.12182750613151043,-0.12324438054101292,0.10110142375898015,0.2888623266091433,0.006789101589764864,0.1770412308555321,-0.04190668897429373,0.002801683305782516,0.10503498045276585,-0.25373573865647225,0.06719715114835154,0.34408861778394173,-0.06546383012676546,0.03307936194624737,0.29381444155000774,0.42813242220556313,-0.25515036309223466,-0.0648127507865257,0.24664353443781742,0.11874003036266537,-0.1942185846713376,-0.004322653986946166,0.10352384519691422,-0.04455300480791452,0.04719702744179462,0.004001822095146541,0.019458549952679753,-0.2290127872366716,-0.05454256189231073,0.44064142557445585,0.6178693729358411,-0.0716416426941657,0.010306409030241962,0.20381331542733322,-0.10936956572990825,0.34794921842535037,-0.2720267420841368,-0.028812482090275263,0.18389545844063582,-0.35691601932887507,-0.0567568037254695,-0.027536943815220687,-0.31912902327394405,0.1393704062304369,-0.29684831437790393,0.032521701373619295,0.3750263621620325,0.14134599190761113,-0.08251391347740288,-0.018113494676693067,-0.18703944726990612,0.1875891471682523,-0.014787533675490154,0.20839881959275722,-0.07618017374106231,-0.011509282171377214,-0.10149791914715252,0.12344013170457603,0.08442197285985804,-0.11682056891331592,-0.019355178204133534,0.09928045368890236,-0.13897894629261134,-0.038042616023477784,-0.11889936661003607,0.135936403614206,-0.1206809426496807,0.05759904308856441,0.006234641001641087,0.2254276444709958,-0.05829443380646536,0.15886466528697366,-0.12795975844606858,0.12264266904834908,-0.31410064908772894,0.12523388604043967,-0.1404774715992743,-0.015280300943715497,-0.15382144827523284,-0.14322791038013893,0.20413694146352596,0.0029242291508440525,0.016305222568633673,0.003797142146315151,-0.015193372098677528,0.22425271343736417,0.35585566090370774,0.13993513196968485,-0.13678483309237507,-0.24498794391874226,-0.012582972503910378,-0.0020842922145340287,0.0035000426636324212,0.04553201119567155,-0.18143375101211354,0.22940809332288278,-0.11451744654151304,-0.17104681862996143,0.14186092846883377,-0.24778878220473743,-0.01991140147994222,-0.08790479176367069,-0.08341020336933942,0.03789438549397129,0.11224075704033837,0.11189392239691293,0.25293384010945685,0.03515039410062266,-0.12405318300548544,-0.1291966685969433,-0.0516369568880418,0.1133156091877443,0.09520678076481018,-0.10174630902803011,-0.14853575067670452,-0.14427159992803457,-0.06863762628922863,0.04676612620654973,0.039941509738984186,-0.06409674452992986,0.02680755325941818,0.06979154086060817,0.041338792759789765,0.027926203791360894,-0.22659068620722297,0.17796561122706048,-0.09747816767226507,0.08715700913553354,-0.2285938768340191,0.006653652778162311,-0.1032938060217143,-0.0003733776207587729,-0.037013597313135374,-0.07182003404833187,-0.32022980808653817,0.058871341528338,-0.08297873422383609,0.09640247604619902,0.0809582532441009,-0.025378693234863935,-0.147606717824066,-0.0028188874881073353,-0.2254549803414678,2
7,-3.464496685008011,7.402510369407304,-3.746149461866946,-0.37724246671281547,0.9101173387975915,-1.0018649159812243,-0.8608430785734077,-1.7092191996946289,0.8231748715855309,-2.3258386995089784,-0.2830254734562406,-1.3449636639391076,-1.3209345053714325,-1.4324641717177256,0.20113871723534216,-1.8253297817972605,0.03178746167204762,-0.06037566508595335,-0.763518916484987,0.9040256580160858,0.24404806145218685,-1.9940322473332053,0.3434346874199616,0.946227859298949,-0.5056627611023774,0.8092465616616182,-1.2744235821866536,0.6560599295879428,0.3200629759466228,0.7252769260272459,-0.40235772454915386,-1.4658793864840702,1.0656205763086368,-0.6040498859353474,0.40496890425987364,0.9600224111647798,0.9384791678368329,-1.0269845977048242,0.6348065436171025,0.24254756581491788,-0.40094243949502595,-1.3623214867251043,0.39171273524569183,-0.10773582649913382,-0.46294068332441657,1.8685038637712705,1.0330617721593833,0.6484988291254509,-0.20515538723361443,-0.7314258911377981,0.821055184610668,-0.9142083944749412,0.23923557413897892,0.23596144697286386,0.1417735725620203,-0.6165361627567427,0.6581718168282567,0.16002481885484643,-1.141333570161648,-1.0314860796856404,-0.09079758127701397,0.7753805173406649,-0.07885953823594456,1.139114184378249,-0.22240040711082337,0.19573602618670274,0.14546414234671282,0.45084630253444247,-0.3416510139017498,-0.9426097255911385,-0.006066562941129071,-0.07421483140970375,0.5916333994673584,0.31647130091525966,1.1654869379377033,0.30438931554213366,0.4963796261280097,-0.04350503475895228,-0.9362622780439204,-0.6885564971033473,-0.7682408767794385,0.20511753334153654,-0.03619689317859267,-0.033477518038663,0.7247171672800482,0.3006694452879475,-0.4812709209050497,-0.26615867875812443,0.8057602237768474,-0.25351281652377117,-0.13203257396327628,0.2702140636796413,1.326818233961591,-0.5941529559725597,-0.20760144775444986,-0.33189232435117266,0.3455986963706427,-0.5335488187559116,-0.11302919312844197,0.11891114320477253,-0.6636546702194208,0.41381123377749557,0.12414023680629252,-0.14244293829036103,-0.41273612276987887,-0.4447820799764583,0.9019004111358239,-0.233168708958009,0.8424213675924499,-0.4489558809438072,0.025448762638694247,0.4979308874406209,-0.3967537949117611,0.30360527139193694,-0.01819408043526406,-0.17519877606646497,0.04067431416180745,0.044450143001555,0.902950459803215,0.05161381554843989,-0.4709067836677201,-1.0025359908799198,-0.4794008658632258,0.5297690178812546,-0.60656311206771,0.9281330015883286,0.545551289536382,0.3909168543281999,-0.323798529726648,-0.47797712682640436,0.2044816949619109,-0.4717583683222944,0.3912503380884975,-0.2703284395903577,0.3376513899906929,-0.2499040385107919,-0.9837731532033579,0.33494917217915293,-0.44668216986526055,0.9407677108778709,0.4152983421084175,0.032059097322943944,-0.2790831520876256,-0.20464350136568496,-0.0030349003036042863,0.09932876411018329,-0.1697559284521706,-0.1952719680104666,0.031024316499052507,0.12992755539182024,0.031997577209778805,0.1843100110566209,0.5027641088958777,-0.5474822725119478,0.2513860245230428,0.9291608107075967,-0.5870226834626547,0.0782614514197132,0.19690025182293316,-0.23696121464891134,-0.1594045309906527,0.4235539021782003,-0.39114356593556193,0.23236295147721472,0.24522710307484297,-0.8268273686414656,-0.33824570938910375,-0.01787298741866484,0.019747930164730695,0.19719799469801513,-0.756582740964953,0.02495617334975447,0.05783920198387638,-0.21645802594168637,-0.09733302207745952,0.14041111880501014,0.2507562409315021,0.5563838223533933,-0.3945362970781479,0.5976539892649458,0.31423308321494725,-0.1410216375209689,-0.3013562929990461,-0.4615955997725528,-0.12953055991861198,-0.3125374986271016,-0.4041294680360079,0.21536421469648542,0.25248564322814404,0.6148069577229653,-0.3521387871039232,0.2263247377725918,0.07058691385306255,-0.5509579293549959,-0.20503364063780924,0.31162826507883057,0.022029297555199088,-0.286994472436294,0.34472835296686327,0.046699850826443505,0.4044746228475273,-0.35312472144752466,-0.4552570594138941,0.05010423121056532,-0.26129813883184544,-0.20585352737777324,0.050857114593283556,0.1508838001672835,0.5136557200061698,-0.03779825222489801,0.5422925900980519,-0.1891635505733431,0.4006514053641842,-0.01952199010356469,-0.5786116656739355,0.5602469103845645,0.0882265492440565,-0.13320270708655507,0.21311371751027594,0.015655821336303832,0.3622038507500924,-0.22031299444027774,-0.039364112897753975,-0.1435132504283585,0.16526676930937123,0.1689947716879587,0.30148090119345866,-0.24510145839714792,0.15108585867512855,0.008881767489195511,-0.8418877715440404,-0.4977222385509638,-0.09733260328635683,0.14617662188561759,0.19598377911001846,-0.1665560595788892,-0.5211899192741375,-0.021696165649645376,0.3106672930101508,0.16613693663458726,0.2365460196450063,0.2805968631426517,0.45754955622398347,0.18103205672928013,0.1289393979639063,-0.2598222321651354,-0.03705864739094009,-0.06331813949657751,0.21356658579853463,-0.2799842845801247,0.014687810270748556,-0.049736075377399505,0.3527369586101883,0.05345178910050966,-0.22771074472385977,0.08869543041488152,0.2947785555651262,-0.3445462553220637,0.14779663037491533,0.19860720416826552,-0.21494289419642987,-0.03203003534260117,0.014004761384948404,0.19523592951755242,-0.22035986571981003,-0.026650834854107797,0.1990821221821327,0.024759767048349295,0.3087036981074431,-0.0016725827310712408,0.24138300755599135,0.037449015819736135,-0.413718857684349,0.36547179812106645,0.07874610019074649,0.08487893269981274,-0.2810422761819234,0.16557309161390538,-0.061521086122190004,-0.049875934946865465,0.11401163667235688,0.014128201942432892,-0.3947556803099049,0.18861941745723843,0.14642758810922915,-0.20796262404132074,0.4732195400231216,0.335115712411518,-0.3985427958207832,-0.5063909647311362,-0.22319825305080956,0.009360595569838578,0.1847728650719859,-0.1146624911185631,0.13943410242169002,-0.3405415178888672,0.019460310047777714,-0.23006667938423242,-0.28113315660597665,-0.15060190218130629,0.13932422427659205,-0.013473538570352304,0.08901669888553938,-0.39890180243033696,0.12010992263100818,-0.3919984942697588,-0.03670795456137942,-0.26510589301975673,-0.43602841332230435,0.03667606954330294,0.02790654909586204,-0.0036936250568608336,0.01922201479818344,-0.1795091191428242,-0.0657578884906038,0.22329846806006298,0.20175674710509026,-0.14937688630113655,-0.4460801243626427,-0.5248214697886248,-0.10902277160545949,0.09970596372765393,0.06389945532532115,-0.20167979381694234,0.029324367380442872,0.0748948936394804,-0.045593156877964496,-0.08139449336513756,0.12705478201738946,-0.025034944103172512,0.065139218303276,0.2904776195712544,-0.1294013365690704,0.041235938820522455,-0.0620661603109924,0.15262513767221778,-0.02862519807542334,-4.397201621330185e-05,0.06838851668482425,-0.05433405769579845,-0.03284742137612246,-0.11258312729325069,-0.16763240845513558,-0.21882715422069318,-0.005211425006440189,0.08190390640901334,0.10231368376366831,0.06862505885602907,0.12382035925580476,0.24164857500709241,0.07390779441868828,-0.1424224529300672,0.013652228493315918,-0.08281573996541858,-0.0845462130836171,0.005003661694302696,0.24586505722765103,0.19786814477996356,-0.09298010231196713,0.027093925209736306,0.15186030448156373,0.08707426680979172,0.10566368696019962,0.037019526733509306,0.10638051911767933,0.03117871927867976,-0.007235825046995826,0.02567778361131024,-0.05696604395417733,0.17725307936756035,-0.10795974604767596,-0.06650125673801519,0.07728817267303176,-0.13636722225704692,0.0991466374152397,0.1285719538901508,-0.05355053134086469,-0.22473742673126848,0.23973351507441126,0.07723967080814803,-0.03455912767985062,0.25149731929084884,-0.06822106750773245,0.05195690239844114,-0.07658423835349133,-0.12435467090338506,-0.05068059435814746,0.12065988058459155,-0.31922293996519424,-0.1927818887815345,-0.1166989721682765,-0.18662844437342638,-0.05763313649661266,0.058383553988179224,-0.08869694507922382,-0.05668892563424837,-0.08541862990388126,-0.22007020637327132,-0.21430801582916292,-0.06217935503214069,2
8,2.7024230484631984,5.085755275388843,-0.8666506086606468,-1.7689190362779752,-3.447002406724101,-3.415266149481818,-5.061541591531615,2.7911419404805797,-2.7212507400342565,2.409106500581392,-0.47370129270332734,1.0186533567356697,0.43918318405386075,1.2174939982259712,0.21928951837102056,-0.29518966924982776,-2.1699165342277893,1.4865607493933042,-0.8262688683263427,0.39025968731745353,-1.7300491497592927,1.248437538031095,1.1978155296483795,1.128215002790563,-0.8079472758403095,-1.1894130335261748,0.7253205849750395,1.0104451348494117,1.3109724314180065,-2.1343024124256607,-0.7154551288900859,-0.007571292533446592,-0.01715861958901285,-1.1072804387659008,-0.7666031612195805,-1.0043660123416642,0.10555232308180802,1.7888106135722277,1.6642316912301445,-1.6872114690684819,-0.8488027423810423,-0.06017470439244537,-0.4590879903253309,-1.1998842069128082,1.6173025221147035,2.2640448676426437,-0.37368543863957265,-1.233931515643736,-0.7011514046377251,1.4554734574223531,-1.5042169867232196,-0.6912840248062965,0.769481567002009,-0.6007478857558622,0.8212355317768448,-2.0688626681857913,-0.07531492647945151,0.026380077086956867,0.3983778725316039,-0.16286720965909401,0.42995575330619923,-0.19931039674033627,1.209272720520037,-0.15492262290166736,1.093900834286493,0.6010759019722524,-0.5859015324674184,-1.590370845095948,1.2241592873840157,0.507677048167558,-0.2641681329314922,1.1065859686343473,0.07319213185881696,-0.04518255297778148,0.15778176979249706,-0.9567740545786935,0.11318201923502089,-0.8391450992827949,-0.9912775683623557,0.8054518648645375,-1.0253526694959583,0.7112228740716612,-0.10337166298380826,0.4938711443678594,0.7721894743947068,-0.6711337287011093,0.19614559181130978,0.8273572344974258,0.4227611929313839,0.10582260790395402,-0.49283735850996396,-0.06637884503830144,-0.05055293652703569,0.3447414395149269,0.02380720919664347,-0.7420922549037464,0.14067652640113543,0.1679593841502402,0.5234961748622013,0.46302231551381123,-0.09873848059921032,-0.12784470731001216,-0.14816781820712815,0.5051251570246936,-0.6284051299946171,-0.38363275343016756,-0.20363420915609903,0.984737423647186,0.08817338515153846,0.16461462846574734,0.20196253464502778,-0.362905704825751,0.03865303878850623,0.44844699992066017,-0.09563349279484631,0.2657581181734064,-0.13049969365483774,-0.1105255113365626,0.13806045148861573,0.08695892823521816,-0.04132557321151265,0.09695158656695717,-0.07714116814154731,-1.2766697095948085,0.028317249086806637,-0.1440155066630415,0.9269783429844104,0.39865235430688134,-0.7684029018097246,0.21037883158674622,0.40454467320354837,-0.5880020570707405,-0.0540951475382519,0.7301789937912175,0.016887070245768483,-0.1481515434475396,0.08976109237823333,-0.6048505328722763,-0.10433745490477905,0.28992018261650687,0.3678629124102538,0.14704355408098266,-0.28115948360571374,0.06260558755598682,0.21199257426950993,-0.4700202744145983,0.3331068808346918,0.3178418406999372,-0.6795741927315696,-0.5287469902842619,0.12006700697807461,-0.4909668661977306,-0.16922476465578817,0.11925214842073159,-0.3108653899557,-0.17511342498414842,-0.13678752702901395,0.8606148660805631,0.026053621006692517,0.311928155085171,-0.8311246563537984,-0.4351355042654746,-0.07920543709604196,-0.2096720267653881,0.6713689486833151,0.4137704373026417,0.49184648992332575,-0.23280450774445158,-0.924207562995489,-0.35522974524617656,0.2322352619450412,0.6233896131915919,1.0227008032125944,-0.560361844564124,0.5891521468895107,-0.24196004583020572,-0.6731334560179931,-0.4594343350448417,0.15957088836582867,-0.11968359079762025,-0.11491147672191797,0.36371831953222034,0.15945136138551486,0.3350053542319448,0.2755308181609847,0.14644322002503884,-0.8032014585609295,-0.014344685551617026,0.40893542567347535,-0.22122796482130846,-0.5607796035033432,-0.39593589198056245,0.05837840500620184,-0.137059105607778,-0.31801482124726443,-0.25428284291936915,0.3286777623806241,-0.43401885031335263,-0.19165223807985138,0.1158627961252083,0.6086584944243101,0.07939413954872786,-0.15373233415241772,0.3452056830474379,0.5534422123348215,-0.1387696662031434,-0.050865688856516045,0.0949420713826188,0.360141861879734,-0.09481468316265322,0.053063718201652184,0.12671286606649435,0.3300639078725945,-0.40687668975566527,-0.3745739384467087,-0.14494359029592466,0.47272771624610305,-0.21623653874847545,-0.40765121470714766,0.24455460651815086,0.23556525663398123,0.3082096690969145,0.5384339093482353,-0.20689286437688031,-0.16511852995290482,0.2723747571937313,0.12444143794221979,-0.15508154622544318,0.5404152216663194,0.38665578494049296,0.1932029615270297,-0.06068287228201068,-0.3652539752403808,-0.322267577139782,-0.16028496019031516,0.28781307079569274,0.6051443302408362,-0.004728448229728946,-0.4092937508869775,0.4037661870844623,0.20195857241565873,0.01608110550096858,0.5016175310989491,-0.19198925996445423,0.16075814203497374,0.03147705763791698,-0.12997604438830387,-0.03943652967621038,0.127536148522905,-0.03161865947365412,0.13055001922910509,0.040385693111216814,0.10836795801002916,0.20233007637008446,-0.01967646570618871,0.3440044822820212,0.3207509765180515,-0.1150859036865682,-0.3620417547739325,0.15631824751494225,0.13610050935727286,0.020083796326785832,0.17598573617206342,-0.20171737471546794,-0.0996911690031352,-0.3507945970847523,0.36050845933758907,0.041446313630275476,0.09683762811717017,0.1355444516508936,0.24603361272310087,-0.12004403549164447,0.07276489187740606,0.3368373329855387,-0.3178919418043721,-0.2527868431351812,0.3986905893251002,0.017356256321657045,-0.11964636021264123,0.2780002727546036,-0.3095104142730297,0.08442382014489673,0.215780067037803,0.13969810196654564,0.26917692539590404,0.3461447342232183,-0.1902385705571446,-0.03046073330206467,-0.006718601308392574,0.19011813858011825,0.16894863063924462,-0.36549270796336963,0.33384041874579634,-0.07669797379025863,0.10687032922892084,0.03595567833509889,0.04910939509784827,0.05427195833567353,0.04649660114092654,0.1858864490472599,0.4749177759366061,0.026995123344712806,-0.06457982365563011,-0.22765850367750098,-0.28256088123470535,0.4435539640427114,0.040427277594303354,0.06133164597777562,0.06049508518050698,0.013023149095849154,0.032026030556142795,-0.199496309490627,-0.19041582310621083,0.03591957636971057,-0.29360612239468153,0.07113090212734832,-0.39718025205175245,-0.0013410214258586335,0.05327659302577452,0.09151772171053923,-0.16029654017293535,-0.024330141449724826,-0.15137062262587858,0.05231098585280469,-0.38383239090496507,0.0677931678143558,-0.18957228924722463,-0.06290915956123416,-0.07730700075708363,-0.21047246272233153,-0.03512309308133332,0.29442491459144093,0.19285682484785863,0.1542908337932816,-0.08277539260384568,-0.09037378553866528,0.2550220312773643,-0.05821095586838226,-0.12936264614095896,-0.24537938580774635,0.022933337718873566,0.07595724352097763,-0.13985409927623424,0.06910626595080752,-0.06329561252736275,0.04542573417615291,0.008246480557396922,-0.06351925735009258,-0.08953147013504992,-0.1599910568222856,0.005573774583236641,0.2360469277809471,-0.030879869332571527,-0.12864501709281434,-0.14906264728012716,-0.1402098546920012,0.06074468165292811,0.03105399705047704,0.04283143156361555,-0.19627964169450626,-0.020321145527922788,-0.03696294279808128,0.2090543088832817,0.000981600317663916,0.033635662424739,0.049352292852539545,0.11600591479002975,0.0585609868590111,0.12248684329906788,-0.005636804283512149,-0.2684618276875058,-0.05868236747780111,-0.10634849530127964,-0.1425584746315729,0.03609348083372836,-0.12122209255143698,0.018528123760284617,-0.1332959032911857,0.12474354053519619,0.14010536346973354,0.22674336208743,-0.06291469144306491,0.10638610001894008,-0.00227033589080884,-0.08749693235966402,-0.17910063446083055,0.1348744072275467,-0.06319572791906453,-0.033322689670137316,-0.13518770921750695,0.08104484889710097,-0.16219233145703604,-0.09739388256587828,-0.06852492813499392,-0.09058774630834757,0.051596688886664535,-0.05987796569836775,-0.12265078450750355,0.0011354945302675151,0.14163231897984013,2
9,5.595778354558676,-1.4833468622113726,-1.138417387543954,1.3771984318490471,-2.1405530969565616,0.5252132113215962,0.7144790173994542,-2.207005741271228,-1.8418004054428585,0.634190990485416,0.5218624876658813,-0.6171702918189724,1.2576103589926313,2.283718788997172,-1.5515386928297472,-1.5294847935529463,1.095052047435319,2.039279537885149,0.019782444138156097,-1.1624427726160815,-0.16886232945055207,-1.1965217456333497,-1.1392246876578993,-1.1147882691351678,0.38368514712501994,1.4561774770511746,-0.6929695139814036,0.5589124070700777,0.3308495166366143,0.3971882978673714,0.9455238601761887,-1.121204059428762,-0.5352653474883527,0.9813817286454615,-0.09639220583569615,-1.9482902518520162,-0.33335915910206315,1.400108003501143,0.03570622576301592,-0.34450759549438026,1.890599301187153,0.3567537112480067,2.2209675667566477,-0.4252457067113497,-0.7842231152314586,-0.03174245354160218,-1.2961478830568798,0.3861796801078847,0.2944753161373276,-1.0572483228548515,1.2465027016702326,0.5501624204442639,0.11410441200256898,0.19811139623468976,-1.045254382265287,1.0882525502455904,0.9494148722259924,0.28438913676742816,-0.1600562345404618,0.12626297591113342,-0.2838477056720236,-0.20455891490339276,0.2816837687696891,0.8485233269186095,-1.1276186384927975,1.2250788084345552,0.40332419385107166,-3.3431804760546764,1.6385333524346875,0.039303024231485684,0.5172489057413776,1.8777443283683188,0.4190013037184851,-0.597948409330996,1.0685352271099713,-0.03491051154720878,0.3760418320976773,-0.45030366105264247,0.5445534147004815,-0.3360392238740557,-1.0532974999223446,1.2010544185988234,-2.1158293983653316,0.4877244863241621,0.3818739225924384,0.38963124958469025,0.41095576624340946,-0.30546745792866264,0.26779193351883984,-1.0574139695631677,0.3515153288079354,0.18972686360918142,0.6286081686272039,0.14829015396347062,-0.6596258238110538,-0.3153220409703057,-0.4874959299075262,0.13722151385484774,-0.41368576739440993,0.9477886980570213,0.08705118473856883,0.6004219539771077,-0.3318351836201146,-0.38910460154313825,0.3045411737265151,0.195383378111541,-0.3502973604755518,-0.4500217297539345,0.17126752845746868,0.5200954563134997,0.9258838547092872,0.8083689844504861,-0.49909662527622856,-0.14737550808038782,-0.9778942150545129,0.3613527553477112,0.4583015511730208,0.49584952176007197,0.7299126691920114,1.587594639575859,-0.11783730016247505,0.3142208384138935,-0.5751630581450516,-0.17242466357370553,-0.2889738403161361,-0.5578391395914926,0.5746987728873458,-0.20634699333470344,0.022542717930148694,0.2211570169347987,0.14968611006433302,0.27752887830534984,-0.6276207696174385,-0.20411497040619683,-0.628609300501979,0.49159639986448567,0.025741380710424866,-0.9072809584338055,0.7779508463537479,0.47792274070354407,-0.26362074627613885,0.40348346003101476,0.12115810803895453,-0.07469774565431161,0.3062400960638376,1.5475313275069984,0.422505019762661,-0.07578287798345805,-0.31204577215919427,0.09703197930642643,-0.01531811697127509,-0.05021349935071056,0.4081393344747272,0.10028253133188995,-0.5576897656285594,-0.051497050834945095,-0.5122661798130046,-0.10431099935608434,-0.069564006965978,0.5938881759494247,0.09073270502248638,-0.6463620546511055,0.5021017045310833,-0.6659342218365947,-0.49706223705543584,-0.5591352545081806,-0.41717271389050925,-0.15810245489943323,0.3451156154157232,0.5560132539756857,-0.6031264801355102,-0.257931767807783,-0.0038563563509786086,0.3523436372171255,-0.5052454374853712,-0.15030649219313078,0.15551348764151943,0.3872581977669208,-0.2842136000572967,-0.27102967333875944,0.6898383555586741,-0.30117581994464115,-0.49969721663359884,-0.34992124812705966,0.3009536157216137,-0.37155096976598134,0.05223515484013659,-0.1414569406320949,0.15234523124891686,-0.2917695451676135,-0.04890818176691908,-0.5474306518446022,-0.215906755400416,0.5246389987056129,0.23453675346270314,-0.4505604039405866,0.22013445886376812,-0.18388102980243062,-0.3351954025155864,-0.09944625817611807,0.1927350771755408,0.08346921398750581,-0.10521621019021267,-0.20457505137715318,-0.05998631976357498,-0.1773435111477045,0.09510835792911224,-0.20983558716856165,0.2677916429195511,-0.2778496515727752,-0.3624574534256754,0.2529750905271537,-0.09261071055695892,-0.21395533220012736,0.07096341204771474,0.17009948861429766,0.0057242347283775275,-0.1290611298299147,0.5473604760685746,-0.35945458056975715,-0.15512869889554062,-0.3500860721036818,-0.06298507118882107,-0.04982171063146416,-0.35565620153389765,0.2847217921163873,0.08279800908801198,-0.2595843857047219,0.22764646452830378,0.15237733668750095,-0.11437174663962972,-0.021370499352150737,0.3278033841496003,0.1967307740268755,-0.2924922582873654,-0.048892727792390026,0.18762052644173743,0.016864133131856904,-0.041686667174061554,0.34646748487364687,0.4371463808236348,-0.26236612784522767,-0.16101324671266698,-0.18068851966789265,0.08865750863961147,-0.31167753639730256,-0.14252603006318362,0.338332569214737,0.18624234932011552,0.09320714136793817,-0.23678647557725765,0.028941628244834414,-0.30344198777044146,0.1122730536121399,-0.06335282861894281,-0.4410844427144938,-0.481697316608623,0.15868101942166177,0.2877458099171381,0.0921619559564954,0.21804554059503806,-0.01949826708428669,-0.13816235872096147,-0.28529306453141534,0.12610453608817465,-0.3352318130978017,0.1694881349354322,-0.04698084501749387,0.03833475618165483,0.21890588328411312,0.3263848258505799,0.009177379296329948,-0.2349672442738933,-0.06361811694440708,0.14383038455427002,-0.24316098714483636,0.012419812047859127,0.4236528585052271,-0.23637212188086276,0.09263722798936427,0.015564815781800365,0.27365719416785644,-0.26929484032710493,-0.34484221064640513,0.022261752448166236,-0.06907081707116093,0.08116501577076914,-0.3190277860343882,-0.29731181300178,0.1383234525524049,0.11813808275806688,-0.12919693393122478,0.055509356298584535,0.26379290478757667,0.12060305495178268,-0.1420691720777302,0.2570354120617967,-0.11821718735591608,-0.18357809376436143,-0.08736395555013521,0.03574749465287707,-0.07291111529176478,0.11916485164248657,0.15367882319233447,-0.11907324026225484,-0.1748535836072253,-0.03090424083969515,0.03410172874984981,-0.04822338322877187,-0.16578167293135648,0.2163907386530347,-0.04764573507119752,-0.10056558407079708,0.019574414245963873,-0.2205306925915582,0.2539644062536868,-0.03933649595422298,0.0656697737169827,0.1345408528816732,0.25409727346328204,-0.36289201076877425,0.05713995494447462,0.08558858416916326,0.06621074693659577,-0.06757042666698426,-0.2886126856625601,0.06881070770897602,0.34866007028059237,-0.5980854007808947,-0.21787510653367304,-0.04651963381049905,0.15166341175299008,0.0852388928681402,-0.02843065482386772,0.19134100014908953,-0.020100259930289435,-0.2668378071068401,-0.14526496031838262,-0.008499654336235965,0.2682826103080029,-0.12094458341680839,-0.04879152105336064,-0.007889166466290336,-0.07221918798657534,0.0828706782996199,-0.12323610085534595,0.12732864459814397,0.10045866246398986,-0.10720814725384702,-0.016799416483181864,-0.1122362383959311,0.050692747458784666,-0.00023727082421294663,-0.06271494662542774,-0.15538543104454108,-0.11663803407594261,-0.01751502760780543,0.07055672781687489,-0.05505926464491296,-0.08354160910835402,0.08524708651887303,-0.04354498985004933,-0.06355098889605426,-0.02999506142785628,-0.04845566590220256,-0.15731603835503297,0.07617003740791652,-0.019154103729761028,0.26225301040306237,-0.0700011856972221,-0.12563181566097156,0.19081931574828992,0.022365401346348634,-0.08858338049999494,0.07588142565176066,0.0721294921234695,0.07182786607358019,-0.1563374382680669,0.04065393133387997,-0.10154087682248718,0.05509429165166053,-0.11167494770253264,0.001962939388391253,-0.00837436191089174,0.09402822446653283,-0.03913395063849854,0.006918997583435173,0.10509887206486317,-0.022874939601602216,0.026984546931531614,0.09542216472295705,0.06895455125429098,-0.0981907010522907,0.029928496252545084,-0.061573890967572716,-0.021804263314567498,0.01716435192528094,0.062021008500799675,-0.02044411883014477,0.022393619069523595,2
10,0.34607418494911274,1.2220492592165562,2.86093436437473,-2.752311156464046,-4.2633554818676815,-2.3499914030814786,1.7249694927399135,0.541089406108525,1.4099237707607488,0.8297841099859856,2.5015524781391907,-0.5175988778992627,2.106098400841223,1.385137660784721,-0.7047590724779329,-0.9443679838215981,-1.030786995880077,-1.142512788158748,0.5429276279867326,-0.5143330111695222,-1.9118047015034194,0.6035510301450322,1.88289752143005,-1.140940763176296,0.4211774413472585,-0.7967749305358989,-0.0746268078864266,0.9660444453823149,-0.6503744174243328,0.42743902885670876,0.7331972583126719,0.5800171801064768,-1.8344360492117646,1.7694746554889587,0.08270092706195513,0.6596182424210977,-0.7908635031544982,-0.4877802714420475,1.8766102462695355,1.1025130100934692,0.7754600579546573,-0.30222987416849095,0.49633186359199555,0.1376553380040206,0.2640484124400559,-0.6737406262111824,-1.217866516212076,-0.25160203454501456,-0.09640516480819629,-0.19960169115103746,-2.1193398443875724,-0.835653710890643,-0.29260932735204237,1.6798539348395038,0.19480989995105547,0.5905000999749284,0.23718875101715223,0.8435547328748259,-0.792851538787512,0.988940211534173,0.7770957105405506,-1.1342488805395365,-0.1901910702324969,0.6626221991557956,-0.17159271833422482,-1.3243251593077667,-1.1908418259182283,0.4709953295350884,-0.1961649162361146,1.3230447897934015,0.6756527326545448,-0.9173357710880252,1.927005600882278,-0.34754199619540527,0.06438914596963881,-0.22978216547699962,1.7261298592170315,0.3834589166932984,1.3825258953817798,0.6530679716787009,0.9362082208911964,-0.4822837996809682,-0.03622801786267807,2.14580959031009,1.0071186259937348,-0.14949592665985187,0.19727030037708118,0.19113768343779225,-0.8904958317507312,-0.18798381822421834,-0.34752986483682186,-0.48581164924070463,-0.37049496248402203,-0.6137364635768585,-0.14461615674242143,-0.17097026568846038,0.4002948202851318,-0.30737717943717846,0.6951639262884263,0.7750262428465707,0.5283503817693107,0.5148076389931553,-1.5812617541541416,-0.3188434009523194,-0.3928089371832026,-0.49190550357397655,1.1264432901889567,-1.3455699306471725,-0.07461564857302411,-0.8712206560294976,0.16048711436449098,0.07079358385429456,-1.1200991288553812,-0.3836705696021341,0.1542295185972522,-0.933483347533987,0.44666176930804463,-0.2813299955615647,-0.45003196751397573,0.342110569870644,0.7455691201755034,0.7678477323723438,-0.30855498743592547,-0.16238569878673423,0.34549020525068713,0.5251853387741232,0.40524889934982605,1.089400301992597,0.3912682516632562,0.21403675015248994,-0.049603387468987355,-0.3579177897501225,0.03163130737227973,-0.6424824243694104,-0.21651954374360644,0.11715788317897113,-0.11290771550366628,0.4731239025419799,-0.8070801750727598,0.6695956583386861,-0.011380600802053593,0.9281341539482307,-0.41257172023956173,1.105471195743465,-0.025895060166693226,-1.6783671108543037,-0.9661122002316972,0.5573619656859691,-0.6201745830343779,0.5486162094871009,0.4147258019945116,-0.05078870593724002,-0.5759927834550371,-0.1183099016639686,0.3942700737346769,0.2645554717053377,-0.2943390349028657,-0.33353162308081546,0.15986175214779136,0.11741637790274788,0.40638170827447373,-0.04789961160240392,0.5232997261783343,-0.03816117268933112,-0.0826242181702193,-0.1644944315422042,-0.44318734604620363,-0.5670785958826321,0.21307809766819266,-0.21854852976427,-0.03718365186617644,0.08311415189227883,-0.18652948050205329,-0.15349098239858566,0.1015506124170063,-0.42824685805143253,0.6981913659310558,0.04555220330807303,0.06176291114812086,0.19839915007829795,-0.27306690538481726,0.0637551219851736,-0.2473621819864823,-0.39625163358891163,0.35333660560074787,-0.6183085045689886,-0.03937156489304566,0.40985105805194505,-0.8321291199901703,-0.09137795912220878,-0.04159967221508295,0.10679729762427732,0.5319884593666268,0.33355828318118974,0.17946764201244847,0.0008356171835056407,-0.47769730363522594,0.150427045228919,0.15827384188758475,-0.10488028132272724,0.5898800115657218,-0.17474156637296748,0.06397126909759217,0.17932118502040395,0.256862754919239,-0.15482819608049925,-0.18244044014551877,0.024106853660406543,-0.17063886558782748,0.44223608928697067,0.23607455381294015,-0.22667102339285725,0.09708783270345622,-0.46600779327198477,0.09596860309096023,0.10731716210893316,-0.271673259414251,0.2606620004106923,-0.21830254283786651,0.35550863984500813,-0.0024184787044204815,-0.6789460055093631,0.2097192437613778,0.10232270814322944,-0.16260759962164895,0.22173871488617902,-0.4228953578521906,0.03505568333325062,-0.14372862691947544,0.5656581120330667,-0.41205445828508486,0.30081777326940745,0.32064919369127826,-0.3975663893254606,0.06547259213949225,-0.06623979214250895,0.32256349424945574,0.3826450174999808,0.4277020587903555,-0.4954675298012286,0.29277482203786304,-0.1771877106060375,-0.33789921957781227,0.07400756127054582,-0.20562601023262478,0.06946642253300714,-0.15378094997932537,0.048195535410066805,0.2480546271971539,0.06168156519428399,0.21144417452800626,0.2680199213906599,0.1950476836371564,0.20088434799299956,0.29008205536695475,-0.08071748680719773,-0.15611691846213427,-0.004287054757349362,-0.22231833737324513,-0.23643109956424324,0.02006774710958175,0.4861313801002326,-0.3011568282734727,0.09945582802708744,-0.020759746606910445,0.14079712948791107,0.11542032365607181,-0.17649348297869027,-0.39512129895259696,0.07524339348340059,-0.11395321889825445,-0.1350009062839383,0.05350829927258592,-0.0700235561915369,0.1819169933790043,0.08956950811476477,-0.27357097697716404,-0.0675679423144771,0.44846804671560836,0.29002033255773113,-0.04813182502567765,0.26305516698274023,0.17365154294092608,-0.32463480664672945,0.07877720151070906,-0.06770940599364038,0.08644841022945267,0.027596082896861576,-0.30034809524866307,-0.21603580343748421,-0.11008885110600868,-0.20034457186545934,-0.07650677535802339,0.23035214343359015,-0.006355035986599783,-0.3151435399663678,-0.26359711313191914,-0.13154115774855088,0.09257576408147862,-0.224047277817282,0.03734180468576705,-0.13923239293448245,-0.3188573261732684,0.03092121589119238,-0.007986301354868167,0.14566585351498731,0.15004780968495135,0.05222723115090406,0.39466055214778917,-0.14190151737465692,0.11120197388334258,0.0013096361984009672,0.13229565957980619,0.15256474293223368,0.11678378567057898,-0.08905335150226891,0.005754838723366366,-0.2272419080052259,-0.2658169501652227,0.029203933477034753,-0.2841314299989582,-0.2263143795999105,0.18479816792649997,0.27568441404346433,0.13147924024900925,0.029698861368708102,0.09271535600050596,0.08993439562402829,0.14379887454302426,-0.16251200182014688,0.17106590819860254,-0.0033360994726465646,0.2360883128278794,-0.11418613579206757,0.08303875790647514,0.057430575752554516,0.1838728491690111,0.0894352235578677,0.23552754398093387,0.14691276388096147,0.00032385571016821623,0.00010574158163305749,-0.1012122121002973,-0.022718952233627212,0.04135686674582061,-0.004149346132154336,-0.21100529041184032,0.1910713006361887,-0.08509871862993713,-0.15854117545938046,0.053733878218060076,0.33292845793094644,0.021020264655780913,0.03607512882262491,0.03627620392236686,-0.13718308200013643,0.0741224373033178,-0.02166406940311288,0.27528075289145737,0.007552463449921047,-0.21531442933739486,-0.16730034015776737,0.1158618013395778,0.04071753132929286,-0.15743654428610557,-0.027878639854284334,0.01023625258220518,-0.08418228064700752,-0.12303186374865654,0.27713642408168593,-0.08612443800638818,0.07800328529981727,0.004154327444425826,0.08272199948588989,-0.05413213265961788,0.004238854426169209,0.141324394083812,-0.13284538837066062,-0.10248695356574124,-0.005751572659169218,-0.08366257980240191,-0.06056546095509602,-0.14082205244151746,0.038970324075805134,-0.10348692909199063,-0.06362704593789294,0.03835609212212148,0.04786897489437884,-0.02440945629585303,-0.13428461334086572,-0.030880162949934103,0.03838665467796038,-0.003134897968063139,0.024304961190874337,0.05264757702908519,-0.04286410370562348,-0.0968418840364799,-0.0020028941431644563,0.018958747269307654,0.023247555599478664,2
11,1.729785732056579,3.8165771946776843,2.647857247550539,0.7416710079746855,-4.094229313060176,2.478110808280836,1.5061822704875412,0.542486082533931,-4.697171090724255,-2.997936156351641,-0.5422300942118752,-1.2101908490329436,-1.5801425949225503,0.2392328199786012,-1.6911181203543075,3.54811352495814,0.383163957315811,-0.8910772852555573,0.20117412833794157,-0.8598013746101961,-0.2139360683686957,0.21559379599536121,-0.11737413582612599,2.7384433125380454,-0.17362945063498952,-1.9721829570550748,1.897676171165624,1.50508389278128,0.18363791291353923,0.43519831225108124,0.37074776719934455,1.110184582995456,-0.46887901732460197,1.5172941082723692,-0.8401245497673715,-0.9250956118238667,-0.39780190550586064,0.24712215017170044,-0.009293913640294329,-1.0603826224992183,0.09770579218532623,-1.2394072977887693,-0.5541888000315817,-0.4862046328749414,0.33371040300565896,0.3542384922220467,0.6912249774362447,-0.49762294111077704,-1.0058654367268014,-0.9446288376355216,0.6937224685025999,-0.4223960244333324,-0.781558391938283,-0.3516933122256481,1.409342692979113,-0.1325869192579896,-0.5866380805516911,-0.058857934636454834,-1.6165220639517934,0.36394684485845813,-0.1254758640280185,-0.4250601139684039,0.31682133587828276,0.4139170926064175,0.16630932203677254,-0.24214292802635656,-1.3666286702236192,-0.10849704662117737,0.514516353600377,-0.08238529140146367,0.2968945806540117,0.3992421578207883,0.4888659675672381,-0.5509474103229153,-0.41788919950444975,1.1824594448931784,0.08906669676862167,1.0483850178833205,-0.004596483839352186,-0.370339724535352,1.0240282227628845,0.2555513641115132,0.38948721903695127,-0.44624437319900806,-0.1562176924716327,0.23346923226483615,-0.27627620981292417,-0.363679771889731,0.2138306954500379,0.6378929075630992,-0.480726973251652,-0.23198605185985413,0.2076816261455331,0.33975155633071435,0.9036736438028417,0.21091836016945006,0.8605985528695427,0.8753569641388493,-0.43762751163753794,0.3084568100364423,0.8058285951872518,0.8365515844466477,0.35472235046163064,-0.7349908043404335,-0.10429454307155403,-0.37973777912040096,0.2037915268175268,-0.34763419395742434,0.045521867392600675,0.564601507715085,0.01139221014182581,0.29063496270929334,-0.14928153914754272,-0.6881157162696725,0.03652238265343285,-0.3987087305393824,0.08979208213023178,0.6205342441756587,-0.6878536033282614,-0.004164839508531101,0.1444405649348083,0.02652283978621072,0.6059330039218991,-0.12133349804968366,0.2216955789181898,0.23414519072919293,0.22883336880080876,0.06802461340157116,-0.2593503718370551,0.39756612545551717,0.1995186626780571,0.1796089030034587,0.7290520266439393,-0.672933191815145,0.36132787979276954,0.34389892645251213,-0.8049390847505319,-0.37144432120775467,-0.2951317627295927,-0.4510653053408948,-0.10443401563417562,-0.3463202203633084,-0.1360533399503033,-0.14629247460280564,0.3058635519795997,-0.09363511561003754,-0.06180432844446749,0.44954912541893954,-0.02213455505546679,-0.12898548603541427,0.34152971346734307,0.057017792217511486,-0.4268884141198507,0.13402317732234204,0.8944960207592574,-0.13214055078393486,-0.40667717146735133,0.3084084133881764,-1.1300106607011826,0.4654781980526987,-0.16713816345465454,-0.15252620873910677,-0.5105137711712917,0.33870932618881333,0.05462944599722257,-0.566349378013338,-0.03839009348529867,-0.2211549889519268,0.8680682221001158,0.2722891307915726,0.21184832984378438,0.21201047078243285,-0.1631618470204024,0.30620018800442655,0.414580308130943,0.624998208748681,-0.46124508123452146,-1.0424120254904599,-0.0745999078011099,-0.041418231163713674,-0.1821331552945922,0.0372020854635474,-0.2720387589702448,0.2987105111024008,-0.671870675626936,0.07229642129650823,0.5264469227479325,-0.2754714835215209,0.2306528080002271,-0.12879752278554435,-0.1613650661829539,-0.21339227788137,0.03642934055839286,-0.4489007161011376,-0.25507877367647164,0.4954894372255832,0.10280093606001393,-0.1271152236809327,-0.5432073909012859,0.1971245093724217,0.20034199132023361,0.31313061425625904,-0.18258588576488508,-0.24182233071381617,-0.4879232459114473,-0.07469174269965456,0.6325717503955357,0.170983197421697,-0.477142971160478,-0.024793043805125946,0.5314958077356684,0.16589334218454937,0.3666321122060536,0.011413629150849093,-0.22994064669769962,0.16009725799615546,0.34213639240883026,-0.4096559876989503,0.08011823365099485,0.0742129909210511,0.44930085005558634,0.19090100999848308,-0.026188301990523914,-0.21628292316143002,-0.07481838887118165,-0.17087572608138035,-0.1430415679046686,-0.40045252001551324,0.15754173296685078,0.5292479554758208,-0.2941099308485755,-0.10821562558638959,0.08224221786584217,-0.5825699116777499,-0.6454645790919016,-0.002298034777075847,0.1413239799163747,-0.2314128527260483,0.3455553638891084,0.043527635787915714,0.02372716968529856,0.1576854078653429,0.34223341102969035,0.03714881955678646,0.06715214125368417,0.5359101450314676,0.07479657279110427,0.06208374721689691,-0.18961377036477203,0.48282486525692625,-0.3509201400858306,-0.3270756497992122,0.07203943874367517,-0.04920985222551005,-0.2770590501597399,-0.0028084546037302777,0.15151816353252032,-0.3309419634453205,0.5968575937889726,-0.4503798797732741,0.38394820543834746,0.12476102886597837,-0.12444066525243,0.2775982474731272,-0.06277052492534603,-0.24272261820962807,-0.6884912399651167,0.5778437589947959,-0.16536998345574297,0.003139470924706385,-0.12088879594453114,0.112532893148459,0.11340496687671572,-0.05216322770569401,0.10485739087888278,0.07722143394881098,0.1674330136507004,0.032921223355928314,-0.0833686864027211,0.05221778213627832,0.47612663700178626,0.011799656003436304,-0.12876406844035243,-0.12825121003396472,0.14904963297203755,-0.18851059916892704,-0.04610949533735857,-0.18207541186389423,0.08306500357474335,-0.016662385682481483,0.054970499360608695,0.05971735121529108,-0.05532471608703035,0.023583700344298554,0.11559103644647879,0.03754334857937849,0.08516957253180735,-0.368562183660345,-0.03612949801151978,-0.06443088747097564,0.062347223717439344,-0.09902818065299851,0.08470429324293541,0.041872960217370206,0.29681482237495455,-0.4446146488859009,0.013959345797611423,0.012944221588360685,-0.03408947223300455,0.029766954207374793,-0.05078522568425833,-0.08698325623043301,0.2252988449301478,-0.15809458357200679,-0.07928790710067188,-0.0030722163842248867,0.12863064235770486,-0.294889868155396,0.1718574559934728,-0.1620362436167055,0.10686381024393728,-0.13556489111166578,-0.05367946269626039,0.14492921895240243,-0.27714353922165225,-0.06151256692639031,-0.28833010628185884,0.16737078020440854,-0.05034692974186307,-0.24745556185278203,0.0911971843623768,0.016916736899081526,0.01353955273360336,-0.33690997936971673,-0.30203919823383585,-0.15936519401547017,0.0556831059685889,0.052348679764062496,0.1790365746740347,-0.010876320364160664,-0.05133118225035283,-0.18455398248481036,-0.027524030199329003,0.08252020639158084,-0.11372545566448626,-0.11991587396157283,0.022448269838862518,-0.26734125199998715,0.06551588624315602,-0.06641089233669008,0.11485335029059145,0.03595162786818224,-0.12218670604303422,0.07776570164731232,0.16204751767011533,-0.021355016793438514,0.3235944350433869,-0.04394285129411704,0.2148628610645359,-0.11936905233440363,-0.03993970453903199,0.2226973317584975,0.1112396746832651,-0.010299394311114242,0.04096195995692527,-0.1010148382664977,-0.07497718063081586,-0.02008287651196803,-0.10097992686854378,-0.27133077984397486,-0.13785918091163268,0.3612219235234428,-0.2530887204300201,0.021182233648362837,0.008754854061929935,-0.04359587502814369,-0.052017637520551815,-0.019171518684102207,-0.022964045659864884,0.01666652605991266,-0.06423435818211144,-0.05930532220007186,0.011707157088729893,-0.113628101821532,-0.04393260913992503,0.19971571952252223,-0.10125541747698226,0.07939659327033953,-0.055837616033436656,-0.020958135961597936,0.06339271124011764,0.17432819764584703,0.0016719545510276803,-0.06828897331467443,0.032899558006023594,0.045653719171080485,0.05435500380695881,-0.029831199525880193,0.024733283460050656,0.10750365612881069,2
12,1.031164346610662,0.9075733282846385,1.8690812282796356,1.964863621745076,-0.5493150453041153,-1.8714312127185513,2.582181493681303,-0.8124237362194627,-0.5878506830501989,-1.3393489480426954,0.3288922463711508,0.5288204883915086,0.3838022562881167,-0.32594095067473344,3.098083259885889,0.8356493840210312,-0.780900749643266,1.289234526544832,0.5735250366653477,0.2345540513805475,0.3386261842019198,0.017099893408716045,1.516604563095164,0.5723890223333173,-0.1335148595558174,1.0657881029461216,-1.3142442376032888,0.8650138437960541,1.1234880717697213,-0.4425369634298722,-0.056790366760353435,-0.52104637387357,0.1804098226194518,-1.9576100517775872,1.6071826054294054,-0.4108315025719776,-0.23454489969525585,0.13302689973333418,-0.5536443834899509,0.6626238690767432,-0.4874613578804038,0.6028714760575209,1.6796439106305063,2.226922553306107,0.272287377495503,0.8022316658543266,-0.9902767998665658,0.8546383667551536,0.014237828084265465,0.8893721854252798,0.20075836094299926,0.5106294487718896,0.029882704785906544,-0.9695842019223856,0.744847095722378,-1.816994754535634,-0.33049413359381274,-0.9281135049992523,0.08201373386531254,-0.3946349436731225,0.4247606391815867,0.5243349488565888,0.25160218714965277,1.5817901970609405,0.6724197526861978,0.5286981004111477,0.09101490882886566,-0.11064227609828865,0.08337818104629308,-1.1406432618941194,-0.7508911997507336,-1.5213424392283967,0.31536347960227107,0.15389595214866048,-0.7083335704275361,-0.8735869443457114,-0.6022901697704631,1.272907143969805,0.12754667104981718,-0.14041418636431682,0.8441775828751267,-1.0829063875142144,0.2583723516561158,1.0624283565785244,-1.3787168029616201,0.4758711393662366,-0.01573405179452179,-0.2542074628852374,-0.39947853913777565,-1.5519072524750335,-0.1625113288207528,-1.284979628711984,0.5841443016881731,-0.22142326342098181,0.25713606014979784,-0.8746773119755575,-0.6493153203674551,0.5316540275601852,0.91552347174816,-0.34708512015439497,-0.05444453851969209,-0.24273337585713903,1.374320326518192,0.5065289057549542,0.5678483580673858,0.4030369334089748,0.48185783630346807,0.5179005356344888,-0.7186352546371237,-0.5225178138930414,-0.2797605204053921,0.6123617487357922,-1.2631421990199787,-0.2104774003549399,0.5771950213512573,-0.33688258877635124,-0.061345836998176514,-0.22630153489133334,-0.6337115018651012,-0.09780742583578052,-0.0859635928522831,0.28349981863067847,1.3276132428065908,0.5450208088297738,-0.5727850092987449,-0.20274064451635523,-0.5075176356321718,-0.2596697637595667,-0.017210383411742,-0.0597237581112653,-1.023500452495415,0.5278015456069642,-0.40265066540105454,0.032541978060279066,-0.08184205377695973,-0.20457232228442823,0.03505140156410085,-0.12814185033822945,0.26565563334622466,0.605887453894364,0.5134985429492105,-0.7113318583751835,-0.38459551271395015,-0.6769880089962155,-0.5341817215775964,0.21809757226826626,0.3936545264577222,1.2453267733812625,-0.018458895219198926,0.1442278251704826,0.38395378790570517,0.25159769527511733,0.1522734356032802,0.6381346217029047,0.21150885736696257,0.02575726538656273,0.1204385877558799,-0.2123102575076015,0.9031455269729602,-0.39179623270735264,0.22334482964136582,0.15017855743178365,0.16401989212198434,-0.29016975433821107,-0.25508101701357344,0.2028563828476022,-0.2336039440798362,0.3907071006843794,-0.04952642763187404,0.19118492491997466,0.07151853777790004,-0.18245202348483944,-0.23445105921044512,0.4386220603508029,0.32865323950803793,-0.1927857420898515,0.1257005736726244,-0.4545022224610695,0.2036233032118543,-0.20111974510705374,-0.6483144419804739,0.33485221356524414,-0.5063324695496605,-0.18640967112235615,-0.40996511622165355,-0.05645788397882475,0.16347708978870282,-0.19585812376192585,0.3453094720185665,-0.16776557209672444,-0.2986467408907642,0.042598978842099275,-0.26844695974863986,0.0797111914326341,0.06547027571113519,-0.34302129012620086,0.09323950353879229,0.2345680406373673,-0.3148608493115928,0.1878141881062941,0.140204062068058,0.27441453551559336,-0.07984557807200054,0.12347306042093611,-0.6091629059890079,-0.1937147931110033,0.22254247982016193,0.12286392205651629,-0.4160399871895208,-0.21799578590781907,0.04438899203537045,-0.038181234128131174,-0.04731697351177137,-0.35197590576270116,-0.18050301538004787,0.5627757622101532,-0.4846880584894398,-0.6699719269682832,-0.008073554785895717,0.15168924855701332,-0.32441419665719756,-0.23881498468141377,0.06521232951852746,-0.4361253440203633,0.04915184678444816,-0.15730393105986953,0.22245513098048922,-0.656308605299172,0.12616592281604727,0.19448774224859702,-0.00044802628810302405,-0.30943401161091594,-0.12943888659467626,0.08156810849669693,-0.12471546329402271,0.24311274965929422,-0.16056537574870858,0.32612691835126517,-0.5267664667006909,0.2571890424197219,0.1442204353002267,-0.09186149747305826,-0.02845565357014516,-0.18313191002556714,-0.19109484782638594,0.3666919415907542,-0.34803146966069726,-0.0700822651934433,0.020235811835241223,-0.2270722964317778,-0.23678088352355686,-0.28799261085641015,-0.10719216390430718,-0.14404772987132217,-0.13230861463925878,-0.041964974087372986,0.22977597676282072,-0.19831545292104177,-0.058844170460674576,0.20132398955194936,0.4261213809741835,0.13253485151503439,0.3199377227692686,-0.22055078316088456,-0.23953620289122388,0.12343748284883214,-0.026325621357602486,-0.15687564462857234,-0.23387806669410371,0.41417047398832607,-0.1864987973041649,0.13572843502561446,-0.004335362637681773,-0.033046692356497834,-0.11416696885828204,0.24932514245855572,-0.027805582729126917,0.04632473520018706,0.14098687485412392,0.10320772021692104,0.07268507707621741,0.21158949586030754,0.2667718150368198,-0.09277277509815544,-0.01211200085636324,0.1497302334657234,0.21482615997885451,-0.21209995873964943,0.08244270660836056,0.38566401610463635,-0.37123087630732715,0.0441030837318454,0.17328103936268846,-0.23466281337418457,-0.22528684464275228,-0.040174685260692795,-0.4771761214337609,0.29586012975929094,0.20774880936386483,-0.04476948290845082,-0.1496816661165477,0.15778978260441973,-0.017576362520874227,0.3015140077351846,-0.0952247137297316,0.1558362203758906,-0.031160054487305706,-0.06043697716335098,-0.054983632041453824,-0.1849599871467134,0.004514140332097021,0.06987239745908272,0.18548145082717393,0.03891001264831766,-0.34458062074029217,-0.0194326316413949,-0.13347609486798886,0.11644925443977319,-0.3440305456034648,-0.05997918158364146,-0.22418832123557994,0.43653676303095684,0.2601998482137316,0.026271317923687514,-0.022034464351726905,0.0008781153103049035,-0.07355130871322742,-0.19290577874513362,-0.09216094044663242,-0.0031970409804707458,0.0019653928511254386,0.0525938841381109,-0.3983194987630703,0.22671615680659235,0.10561756469624924,0.18027317433302498,-0.001269636073522467,0.1807831408303547,-0.06588534748635207,-0.1243535487668056,-0.33781031462739447,0.03954206731180127,0.05721798217526359,-0.1337753998890961,0.1609752896403724,-0.20714951570116827,-0.16466398949336075,-0.01847282405730507,0.16119266476633654,0.1482787595144524,0.06801259440650292,-0.07297475688559459,0.0249752707275946,-0.05637722789161726,0.1277081553523111,-0.09173921972991246,0.25292178960512607,-0.021346438041187955,0.0032858269686614453,-0.08198214208047572,0.03118569491388228,-0.0478069803718568,-0.058665084910910416,0.03941468929639564,-0.1709855259454127,-0.13819169076325657,0.023598991207994875,-0.007200897731164416,-0.016777064986295904,0.016294392303365338,0.17518259189372773,-0.1501818708705812,0.04490406996172302,-0.017285673699278702,-0.15207501194112868,0.062138159239270775,-0.006618382769892868,-0.060691050274499385,0.05213189636142877,-0.07857250284938425,0.036491117995328934,0.09374082613192587,0.003693945373552348,-0.1727701177083251,-0.16416463157941816,0.02233419106500901,-0.18055984013607232,-0.09697466073897101,-0.03727597545127807,-0.13430777734316968,-0.2007266518546566,-0.14995859817790838,-0.12403156076875825,-0.017360452099343657,0.14439369273432784,0.07171484218005642,0.14556392377266006,-0.18498966778371725,0.0014913773247502836,0.049878109976533316,2
13,0.8373325449892494,4.386822354516545,1.2006890804707007,1.0012140386016537,-0.2803736132028312,0.08769234310795547,-0.12833675803659916,-3.062549036134035,0.24488103363650332,-1.1916949842037488,0.005349346748863518,-0.8433396214215432,-2.1812844173588766,0.5021313839325677,0.2539045360520663,1.257492417565749,-0.5010618103580492,-1.0482911243444746,-0.9150456315462958,-0.2907852707633583,-0.5184655879662199,1.6556311798005803,1.582698861607967,-0.7342875018221439,0.046229998660526885,1.3661366520415645,-3.1371653423401913,-1.085827980455903,0.4418642975456652,0.9402907077024244,1.4130307466030236,-0.9459789577949103,-0.0411098933716307,0.5492566311371017,0.256163592603698,-2.6492102617348787,0.14259318249416217,1.4486375445526138,0.2826544555722811,-0.7368323436632119,-2.1148043258011975,1.6772114517609136,-0.6418786030190321,-0.05447215702356226,1.737287789463958,1.3516259407497766,-0.41966530066404983,2.2364338405635715,-2.899628495129809,0.13017401241547563,-0.07738874932991316,-1.2098211485115116,-0.9749883526675501,0.5312511572403177,-0.5703006295505129,-0.644154179388472,-0.5686317537548248,1.7842525607731041,1.0203609347740632,0.8246861244195715,-0.23053073388268397,1.3442594546524096,0.68022905417945,-0.8358182012695861,-0.5996637086570449,0.6239196549217291,-0.07897396430733607,0.6333863537678164,0.7701399495085388,0.6315047978980244,0.03307676941169874,-1.0402801893245102,-1.0509454676625103,-0.7469549892039152,0.6211546165153056,0.7968974564554168,-0.6165077015913879,0.0783930660172865,0.7520557955638671,1.0978184921989702,0.7624465132142457,-1.3295391510175705,-0.09387001408796093,0.29070576370040946,0.6622601885501926,0.5268160760950805,-0.7333772737929751,1.0771645162456174,-0.15660956531859216,0.24123944803646188,0.10059245707904425,1.1826737114490495,0.5571307165727435,0.011471027145700006,0.08258305397881618,-0.2197063637649908,-0.5031449002417734,0.037923133870454324,0.8292261816609766,-0.3211671557297239,-0.8811709185709938,0.3752446840244144,-0.38468176246428853,0.5417704180362465,-0.15064770677109768,0.20537496584376216,-0.17252813278403753,0.38022198083413244,0.8721140753551316,0.1815316068828776,0.5105306241224966,0.035619394721619894,-0.013904553367525286,0.050189398014085285,0.30493228370463504,-0.6692267042810778,0.4998278545501143,0.44081565577501486,0.11965419083861177,0.539993612593726,-0.25595537235336024,-0.4789551232621659,-0.43453705317722513,-0.6957425467992335,0.8288767071919282,-0.002479236728311656,-0.15359632611625001,-0.5517579248004906,0.00455644710140904,0.47290076815580034,0.023565725267633005,-0.16489649795750003,-0.8662073748241819,0.23709941112924865,-0.07544071255605969,0.6332143195293463,-0.2078789160262736,0.10198395544731151,-1.455477873644121,0.15815856838125483,0.6804261760127761,-0.16881662265091285,0.1311286683217919,-0.507090615751739,0.2707634601993066,-1.1229029570446751,-0.4965926535661072,-0.11757013317213137,0.027756724772859724,-0.015426330853111642,-0.6633986930345136,-0.3424934802903575,0.48538323383682064,-0.8350665334107688,0.19555650530464086,0.08407382939576913,0.48452689464238546,-0.19654219419998822,0.21690317274251505,0.2333774980287537,0.006923127970103176,0.3048279576641369,-0.43941746127954956,0.6193212262499987,-0.23131950382392522,-0.004888749495313117,-0.2575130239513356,-0.13282658300673536,0.36004987220752965,-0.07510251367661425,0.29987018315582,0.36422455590998704,0.09037235121205599,-0.35209793406368184,-0.005989479143286834,0.177520045103538,-0.00972353357446263,0.20044779913336017,0.05786303216885273,0.07218547896926594,-0.1023908939315366,0.055303980673014244,-0.5864986524601984,-0.012072960258781257,-0.21859902795952987,0.042111402698587215,0.44556896350128977,0.47138705420645943,0.003629926823749336,-0.13420085141527155,0.16400388544996686,-0.4063260588021247,-0.2996705689729871,-0.23758570829387687,-0.379266152481078,-0.016849741136404785,-0.08665447618593175,-0.21719046943429218,0.06130736849546888,0.49564979307347645,-0.24166128910320053,0.07712952020623093,0.10261865604305871,0.05913485975248305,-0.09519183735025782,0.25686484790955566,-0.3852745099321541,0.4700415454643757,0.692961122986778,0.0784733481832272,0.24087554831424215,0.3240315654048504,-0.42341428417986965,-0.06707526952201351,0.7619492768310597,0.1489531641944442,0.07430331630183377,-0.1330762107267916,0.049544330704608223,-0.08433168052127062,0.5136357092445696,-0.7681032039808956,-0.19781571659969832,0.536698768640397,-0.2363416312253382,-0.057053377940693685,-0.37497459655254517,-0.0240533553049773,0.6897271257186329,-0.3270104123938642,0.25397290322599797,0.24342116188375462,0.3024724374682329,0.22142872912940006,0.2986421572678132,-0.2832234646115313,-0.12449640740286737,-0.20346772078725536,0.08033077011628846,0.1025585776816393,-0.08195338876606026,0.537526574962735,-0.20170922216756504,-0.20979330688647652,0.26914786008963654,-0.29159011910274246,-0.1452312700037361,-0.0135652149302152,0.08735764650308395,-0.40141432005985156,0.3929264895623635,-0.10972773258423572,-0.28627151703785714,0.28206290055910377,0.1457174767608996,-0.3665968600153587,-0.18261227199280863,0.5955889857748328,0.15522032104482567,-0.24955704868575043,0.1937639596498005,0.2016066117098777,-0.12429354844098017,-0.3573042351668965,-0.1546066218308612,0.018495636169946865,-0.332895935140449,-0.03180286323780859,0.32322393677601846,0.01380093205921768,-0.00366995448771476,-0.12945232144608193,-0.05060061601741575,-0.3930252284928087,-0.3636694141747351,0.11524343948848864,-0.28391739889761386,0.34793830473773046,-0.14331693595125541,0.07629700389198198,-0.2074353581627598,-0.2996466661451715,0.25252712238577985,-0.016456754976867254,0.13479599990119573,-0.04077326935025991,-0.1590508042103842,-0.0538491696189533,-0.14908648315546646,0.4817600069906082,0.04123306420003954,0.09796119670450748,0.07825105041796891,-0.011813981358616894,-0.12702940075372882,0.12037697401760813,0.18269640650332977,0.020403654589163177,-0.10396447299440545,-0.2634418254381887,0.21728748228089362,0.13881212128937104,-0.23696521204855678,-0.12685410724049478,0.07413824931974604,0.1675274690768058,-0.22193427640053265,-0.14101571569736435,-0.1755135234151017,-0.020125795488407393,-0.05564060196035171,-0.03615374759330917,0.016383656941237203,0.18059158338391612,-0.0757793742057633,-0.04546231643787795,-0.10219315237920952,-0.2835001631986966,0.1058133594013974,0.19951300854946719,0.052668730108033725,0.14502460792613267,0.1016682290958729,0.028755223782998794,-0.022173205214027995,0.02471111568944008,-0.052345514672848314,0.12093038439682824,-0.1417187987542539,-0.039025147347756486,-0.033041467583466703,-0.07160526718726402,-0.026172258661768914,-0.07489212729439619,-0.0548248446516017,0.1287184771646074,-0.054642030216129615,0.15668634472233603,0.24051573343324595,0.0729628004374427,0.0034363851760775494,-0.03466292756140819,0.012947706421584859,0.03773691589356944,-0.039014126890150436,0.011929741022414942,0.10192827728710792,-0.07673358726332816,0.1577223717285021,0.41758561213540196,0.23592815680679874,-0.02837519756537895,0.12914890496317755,0.2595510264015868,0.15501357985024858,-0.33651835672724545,0.03464056949789084,-0.00462662877438516,0.10063531221064047,-0.07472217602517213,0.2469957318521844,-0.08840860034333302,-0.1969940718722323,-0.01583728005061828,-0.18645002958706836,0.07768164677456349,0.09973033703112757,-0.07857851941444496,-0.1593958320750739,0.01678475719731557,0.11871169695577113,-0.05821207707754539,-0.3758280628946076,0.13521064784914347,-0.07214056176172279,-0.06961663339957025,-0.03671785104350568,0.11115480585305271,-0.04447630093409772,0.0872031450894649,0.073468453729913,0.0467067897537455,0.25049539316690006,-0.07543237366895703,0.09050630966736051,0.005511547828928831,0.06062815904267843,0.11336978309543967,-0.2780618205505748,-0.019814493980189946,0.14639679295410013,-0.011624051786464787,-0.14341933687263383,-0.022496066716728505,0.06123857425545151,-0.17765421299586934,-0.11560078226874734,-0.1814180651341251,-0.00217794836617041,0.17149372631286172,2
